-0.002910032958613752	-0.001871300121830415	0.003438680651122677	0.002246193443442411
0.002819817811322649	0.005551784927014029	0.001327052083616432	-0.006195658375898023
-0.001190015352840978	-0.0001746977049046984	-0.00394517153348384	-0.00557235210852135
-0.003015010095715579	-0.003261268111232901	-0.002926080568119155	0.0001760042493911464
-0.005323165986776626	-0.006398640825383207	0.004260251884055645	0.001590943374557388
-0.002445208653393258	0.002542599874372361	0.0006350668791186406	0.005613271385001482
-5.848385620699052e-05	0.01394993191950315	-0.004644368215442337	0.002626654517570403
0.001232791949600497	0.006724144709879138	-0.006474046005489296	-0.0007607179573348784
-0.001460774362391616	-0.006604068245343522	-0.006538987359214384	-0.002824211207688649
0.006535444860985026	-0.001359480389606525	-0.0009732430849293187	0.0008168421848052464
0.008650413077885907	0.006735776298715375	0.000164727047026964	0.002358397855775758
0.008136044791218737	0.02412494007994921	0.001544085192188372	0.002759327229233757
0.005994132759483492	0.0276178351846972	0.00698196973688311	0.001965531896233266
0.002592621872843395	0.01243708241917686	0.004805936584727795	0.002309020412033929
0.003034541357180959	0.008005695309874963	0.001173008421745805	-0.001146979959731895
-0.00518114506854324	0.001855643391454164	0.003640248483789138	0.0008968823244078643
-0.004810962433333232	-0.002585437870859833	-0.0007273461677906564	-0.002528230468806512
-0.003988478750145769	-0.009841272413699685	0.003083671812685037	0.002911285660026909
-0.005545570768783313	-0.009113827268607185	0.002742665545927432	0.002822255844662902
-0.006706805620989121	-0.006202325310353375	0.001244646854841245	0.003370756819785064
-0.001647446396895259	-0.002111801369446278	0.007352439438970951	0.004359561696067546
-0.008238645146277254	2.005037243820861e-05	0.00463984154261828	0.006686864528096995
-0.004161758573753581	0.006035775379465543	0.0007291352132656262	0.008325306609947547
-0.003987141844933095	0.01258532770166263	-6.332261171691799e-05	0.002527017649411508
-0.004767300447719149	0.01409150952178567	-0.003825513474589476	0.00619848036911387
-0.00282898547936432	0.004768594222438417	-0.00151220128808684	0.005054588388794798
-0.009698505035250819	-0.005708374080339788	-0.0008296268271098192	0.002066140896519151
-0.003387517368830737	-0.01208875263087511	-0.00229990962350769	0.001045469200493095
-0.0001079016393140048	-0.01333880359912845	-0.001907865009033258	-0.005140465458271239
0.001763472831346756	-0.008901815093150398	-0.007825083651104413	-0.005211195609716036
0.001728631928991019	-0.01342811898893159	-0.0003801787862601644	-0.004152131096989744
-0.0008586727015266921	-8.086607636740232e-05	-0.004372662577675172	0.0003777916094314156
0.0009720099281443502	0.007526810159065058	-0.003682503194361948	0.003357043017530972
-0.00146530564152327	0.01258182860022369	-0.004876843580317575	0.005853706202015433
0.004512375943528216	0.01822069762593258	-0.0001635186363876318	0.008219596961309052
0.004601468335891742	0.01648350253999618	-0.00316607254412891	0.00602642474823147
0.003991710075578616	0.004027262525392273	0.0003621911161019335	0.002270502377521961
0.001694042496521699	0.001973370599089952	0.005281227283811855	0.001654414956031262
0.007720952547122812	-0.005074407278310581	0.01242444548668703	-0.005585571586035556
0.007917608634433037	-0.007736298128875226	0.006230202772294718	-0.0001924216519458552
0.005577514793127492	-0.009644550866088354	0.004899610028499154	-0.00655906876993032
0.004612190632612955	-0.01616351110707191	0.002660497275543768	-0.002740858336060549
0.008377972942449678	-0.01731578466960398	-0.001267903208065975	0.007804229597972244
0.01132650435397711	-0.01343759451020415	0.0004730989811885032	0.02630118125648965
0.01250551332475432	-0.0115605285387008	4.920824605079724e-05	0.008707516772461022
0.01122961046791514	0.006099259201238217	-0.005572856211759744	0.007701266316213796
0.01091459646689967	0.02781236808432149	-0.005998503106489837	0.006349282942355786
0.006266704691871982	0.003881770188146059	-0.009198036518647994	0.009986177857915831
-0.003106114014468689	-0.007622299221764921	0.001288596990762767	-0.001501097875212916
-0.002622587540843239	-0.004427194278884167	-0.00242522768527485	-0.003515212572505953
-0.00264382747623341	0.003025911456856966	0.001973973624251447	-0.01282523405595319
0.0004798334302892288	0.01523314679775383	-0.003878638824100659	-0.01725097056007215
-0.005261752162817759	0.02307742217315418	-0.002083191985876894	-0.00975767852448017
-0.005567012279049055	0.008239230149478968	-0.0007253348531663521	-0.02300448527840699
-0.007635050476258023	-0.002534549975813331	0.002361253697180656	-0.0278999679732587
-0.0122469206710357	-0.002967789295937451	-0.00394460095895558	-0.01544830081922341
-0.006158318823779822	-0.005555102290025642	0.0001089567251323575	-0.008024704853012363
-0.008862582140046534	-0.004732404292716014	0.007605169236721462	0.003874792150342437
-0.004684067390974191	-0.009631893457825837	0.01323231835768088	0.006896416307270978
-0.002650339789215328	-0.006686990667055554	0.009339819677414787	0.004216465990192863
-0.006059872860926935	-0.004864226521335302	0.007983655859453606	0.005741464115422807
-0.001261672367239388	-0.007066302509780606	0.003409359443173002	0.002310307544536312
0.003192413678882242	-0.00348401630180662	-0.002678562965035929	-0.007161188118215603
0.006668935476137089	-0.0005834460765218029	-0.002313740613386025	-0.005787864932433391
0.004880097152404001	0.004461427772209422	-0.007867467610114365	-0.000816094189972088
0.003781444396831537	0.01210580679692691	-0.003794176177559368	0.004605781876095923
0.004401087953037545	0.009714940736945267	-0.002912600056349036	-0.002703067413644168
0.004347544797607514	0.002772497001870068	-0.002222575750878552	-0.007967787845725502
0.004706535497453671	-0.0007224499529989105	0.0008662553876768024	-0.01126362314093621
0.002145327119853161	-0.007114103863966927	0.003608875789999301	-0.001704701539160204
0.001581677402773186	-0.01369387340376453	0.007956142635437343	0.002938434302799353
0.001412068623265745	-0.01403533586497975	0.01167082107649955	0.006553924498475327
0.001095675815913653	-0.007480203114373466	0.002286509976838223	0.006383895633843899
-0.0005120742227726085	0.002129433469556008	-0.002470480749697681	0.00139350610602616
-0.002127541830268827	0.009753231217913765	-0.006361499005003868	0.002248652231925758
-0.01216578763050974	0.004230654584388743	-0.0135317904709645	0.002263304239782612
-0.008049787363988922	-0.001690295823844903	-0.009638058116640735	-0.0008673760999369114
-0.006615434181528445	-0.009902541348033696	-0.004222811014746568	0.004851530878086032
-0.001406745081086084	-0.01135769280464749	-0.001833268454974742	0.002086126349489542
0.0032449268883345	-0.02194774463958381	0.006384920559837058	0.001455132736660891
-0.002139602429878838	-0.03558177627997532	0.005773267615687089	0.002536091281250595
-0.005410911687118651	-0.04028913812678701	0.004254183800053201	0.004226404414413066
-0.001307629737318912	-0.02615230812049612	0.006647455249936859	0.006329070243278586
-0.0002590074233478072	-0.01438347523166813	0.006170798625836757	0.00237111791480048
0.002968820077478654	-0.003917427476971033	0.001778477615986958	0.0007609988750027436
-0.0009392923565916526	0.00275926586545144	0.003612786287602357	0.003156811613768726
0.001258915372570271	0.02162964760508433	-0.005502103183947441	-0.00171366502218069
-0.007947536960576665	0.0307656980206133	-0.009109805740352641	0.008464228725377138
-0.02648758520461991	0.05828576307474734	-0.008475218785362077	0.008335518142127647
-0.01348522414646047	0.04110893328946327	-0.01043025390467031	0.002506880079516945
-0.007429002514075362	0.01994626209931926	-0.007825190346842538	-0.00910713696532986
-0.007501317641880582	0.01168436845067201	-0.004643378148543405	-0.01135495023927159
-0.004607669598378724	0.003316051950194579	-0.00353030478022981	-0.004237432353323459
-0.001764874096825255	-0.007032793163227987	-0.001379218445632341	0.0001849807502292478
0.002139542383422724	-0.01083670528431853	0.002809225900106538	0.0002411158033607211
0.008908855400375138	-0.004230828002490735	0.001241337106339217	0.0003791005463494771
0.003555768821772995	-0.01355091282751284	0.002920574245280736	0.002494019875687643
0.003934264265437494	-0.01800744249758245	-0.0002864101116650551	0.000517462189767639
0.005140823094997084	-0.01884512014749736	-0.0008459534748889268	-0.001179188480731992
0.001096774020222346	-0.01456215721563279	-0.001070483785698121	-0.0004710060883775133
0.005408294019111235	-0.01289859004378144	0.00324440906304544	0.002765860016770405
0.004501587293514245	-0.005269453256107559	-0.00226111173697382	0.001644752272097067
0.006265739531062528	-0.002767193526155224	0.003626398182352019	0.005293836350779531
0.002572905085526787	0.0006943545356602558	0.001084293206696415	-0.0008409033572632837
-0.003331875102625444	0.009177808446061187	0.007768488344395425	-0.00331799745772895
-0.005190042757563127	0.01254769176427885	0.005031109445535462	-0.002270941920606532
0.001228418838869222	0.01491682043726664	-0.0002621776323401217	0.01894529198638364
0.01165572866205918	0.01947336548062673	0.001692335786200247	0.01088873262157686
0.01050176916658509	0.019362511792012	-0.005899465202601342	-0.004191617461132674
0.004382541679674024	0.01697848639167366	-0.001476053345032594	-0.006226515067437874
0.004609085568215849	0.01576454800505405	-0.0009384649638875628	0.003381457601675324
0.00938370914734765	0.01397934195051188	0.0001622268786744829	0.01207676275433594
0.009034951383135977	-0.004189750865919013	-0.003666416075305313	0.006773633478008704
0.006338477658835049	-0.006728235038457686	-0.005505694039980608	0.004769053445476039
0.002100757986674407	-0.004459602595489478	0.0009326154142783667	0.006792826488004635
0.002896822038994422	-0.0027779545716634	0.005440798044319592	0.001330775016785572
0.003262822792207935	-0.005845960877714905	0.004665604827900341	-0.003926068321900405
0.002461842081607463	-0.002342571329016099	0.00410739859182085	0.00755138826872199
0.009541284100256701	0.007717796341716762	0.009539130090799481	-0.007083044865151936
0.002533034445040358	0.01625101460238494	0.0004686233373557026	-0.01610443199124888
0.002738101913785439	0.01799561167347811	-0.002388643930485855	-0.008453677381713175
0.001417250053067632	0.02269255901752389	0.002593266177004329	-0.003846161666066408
0.003851096388243901	0.01644994728585233	0.0004908286101446051	-0.004536835191839703
0.006643803738644856	0.008243981467286618	-0.000821562738473613	-0.0102850055955733
0.006273443191648356	0.007530325529255836	-0.001593833461704146	-0.01897669022168221
0.00879733587231905	0.002706581633039001	-0.007751203075041386	-0.01919253615196337
0.00247617171330478	-0.0009728831458450963	-0.005601934759917259	-0.01069203820534057
0.0005276960121678919	-0.006756784308202252	0.002418629556841043	0.001414993583650413
0.0006993636487638536	-0.0147630703078829	0.00274247888262824	0.002341026798798706
-0.001816393713803019	-0.01708376028251776	0.00464546657549187	-0.004323952214051866
-0.008050038589308642	-0.0170046536310511	0.004313152288356456	0.001851550512272813
-0.01003946100609198	-0.008294792305719206	0.002527972217585553	-0.004448062142171684
-0.008386331858646937	-0.008369810451595914	0.002301869371446078	-0.009139600580426234
-0.006378960576849961	-0.009980276357688486	-0.004109037266702904	0.002970096054402536
-0.006707039732147518	-0.009511614438916542	-0.002794583705122789	0.01058406817094955
-0.001190495447905287	0.0007561932303074027	0.003394795176587465	0.002824788650317372
-0.001242285610276519	0.007868191573738345	0.008343391876703864	0.004635569117049353
-0.002622218626940512	0.01854804363985887	0.01338848145042041	0.01514596195323249
0.001228457122706161	0.01733224893854885	0.006450301786453694	0.01343464594005619
0.002422110825349286	0.008643228676119066	-0.006043555981145876	0.008076895462896
-0.0007088891926269423	-0.0002121250914291495	-0.004521476791568788	0.006282507448914919
-0.001768893602288428	-0.006434738335839289	-0.005520868747173756	0.004208775710508143
-0.007817952181937735	-0.01056468446212602	-0.004563356422431697	0.004946705338517484
-0.001418251683248472	-0.01659682300393182	-6.609133288433587e-05	0.005258389103487377
-0.003982097421286198	-0.01273717484052475	-0.002625406629556052	0.001832324783124934
-0.007379442435929471	-0.01008939518193989	-0.007363291579116309	-0.009866114328991673
-0.01093952497026356	-0.01828689112549695	-0.01038932414388029	-0.01250847145013415
-0.01135127866450669	-0.01489327516435411	-0.009548992493975471	-0.005303768363490455
-0.009985837161954086	-0.004039501864134676	-0.002601696000680454	-0.005325559135136868
-0.008263278697694731	0.001105676407500325	-0.002619556645154254	-0.009492775134151796
-0.003738425228502799	-0.004555479652393278	-0.001609376430396395	-0.00517604507313099
-0.006499681846815311	-0.008297100850561581	-0.001240806701637393	0.001133880616021985
-0.006880795319637209	-0.008084341515990535	0.00374095226828694	0.002434332913174839
-0.002541537441550936	-0.005392669276780081	-0.0009328219153895377	-1.097647135139809e-05
-0.002534733012866531	-0.003442549770517332	-0.002275055721054114	0.00130573457473631
-0.003528116134248865	-0.004960929293207777	0.003974408701469909	0.0007423274176626393
0.001573581948417828	-0.00701367541290105	0.009037133755038458	0.001800761182078212
0.004788846617489032	-0.008176304907324945	0.008039893915826477	0.004543060444476163
0.00881165182480155	-0.007233473528095081	0.006324968707901875	0.002441287752112533
0.01115639040396355	-0.00955093786970833	0.007952018899794477	0.002187113789051276
0.007122450324908561	-0.005924441542201352	0.002703626187035874	0.001868563199474616
0.006680644688114598	0.002867271791062104	0.003333247041071459	0.006661532170581363
-0.0002218027696542726	0.02104891613911883	-0.005650573306804744	0.005912962060463852
-0.001609957173623676	0.01838615541969018	-0.00608945830291045	-0.0003672873396900983
-0.000589225532374979	0.01282918190935323	-0.009870431145372742	-0.001886346798797648
-0.0004076217320709454	0.007682560372215673	-0.003672029221540174	-0.00691064008158539
-0.003029920081447891	0.006330424168187067	-0.002143179864161669	-0.007722896969483481
-0.01232787743047188	-0.004508444609856816	-0.001645919302958369	-0.005739075857245144
-0.004128485565604446	-0.007954668232830912	0.003636406709137001	-0.006036664841204658
-0.00177259034132731	-0.008928163451374396	0.008157384101859667	0.00149398065969265
0.004771008892877694	-0.004676625000461739	0.001426953578852593	0.001671325134035955
0.0004341795413247196	-0.006910315333944335	0.002606092252740932	0.02479344339676965
0.005451994925986815	-0.01047555420626236	0.004686406845817726	0.02042756121788884
0.007017233557455452	0.004038250345185622	-0.002719340949010314	0.01016351274126936
0.006967681259613443	0.008106681750505069	-0.002690184484879367	0.001288342804961526
0.006253580486111359	0.02556046290106917	0.003166683816012592	1.902871057440355e-05
0.01116935765788541	0.02015071665370403	2.894158053668473e-05	0.006686607609325367
0.008874301311605453	0.009925660330099688	-0.002060082165592677	-0.002375824184388598
0.001306574090696061	0.001660531444442287	-0.002676744293837002	-0.014210211307711
-0.002552395641104463	-0.004155449080821619	-0.007181921429031294	-0.008535175342590656
-0.00143013528658405	-0.007644250745668294	-0.007428234130949184	-0.002118558071840547
-0.003279406186717996	-0.00572195264337062	-0.008361663051988341	-0.003638459742175542
-0.01301256688712784	0.007150765660262747	0.0009750866358665001	-0.002877368130527425
-0.002387470930537778	0.01219241035340027	0.006167764943560932	0.006807200257721705
0.003896542733696546	0.01598114732389972	0.008090326751117273	-0.01312306158481823
0.007897385669682365	0.0112013347081146	0.002078594121057728	-0.02203595415171241
0.006550023088837826	0.004999725429202802	0.002106679959557298	-0.009772452115907326
0.003298369080674503	0.001383651900906025	0.005281610980992494	-0.006009705592458879
0.005688341847524098	0.00157740426899851	0.003311215562726252	-0.004488441034857951
0.006128578561219825	-0.00216434785586349	0.005639717336606608	-0.0005773530341628666
0.007404979544894333	-0.006843841430278546	0.001245759390545284	0.001980976555232331
0.008664849445466577	-0.002826649419801025	0.004769102406655851	0.0001394453703770893
0.006858821081893124	0.0003509374528463679	-0.004805080347108329	0.005485516701119672
-0.001050818758900742	-0.002374820933532867	-0.005003933742488138	0.0175076819159543
-0.007617506123814837	-0.004395274456815801	-0.003125454857728891	0.01167912831084055
-0.004253929937769629	0.0003686847638685177	-0.004988132820142816	0.007910595156704798
-0.009030614809683174	-0.002951956132407277	-0.00861480087670812	0.003514252102634646
-0.00530580858186368	-0.0002952473475467734	-0.006693254233678319	-0.001431342456049144
-0.001966368461008711	0.003131931546432537	-0.002197161739596801	0.0007754040674188251
-0.001605262374092714	0.002334091296787087	-0.0003691757757387324	-0.004730540754901159
0.003511225071432249	-0.0040117998756119	0.0002865660640836638	-0.01740515048765821
0.003330189217248319	-0.01083643858914383	-0.001771873311725439	-0.02673785679823077
-0.00226546267911921	-0.0131245320343558	0.002821322192527489	-0.008392153234137396
0.0009689677550632886	-0.004445617205359006	0.006129843185699992	0.005555165259292578
2.810761362228705e-05	-0.00854227538569838	0.01377158058490767	0.005958708459354235
-0.00202345831966151	-0.008573226046546091	0.01638736271581533	0.005894259526701368
-0.007288790125578346	-0.00741368663806681	0.005483191624955853	0.004719111270987851
-0.006790713818667238	-0.005493694203926694	0.0001573840399458195	0.006558605215223148
5.394743916300614e-06	-0.001103780171570173	-0.007917716384251074	0.007942083736659658
0.0006987616002579707	0.0003011024993682604	-0.006242662943528043	0.002944963383202729
-0.004734669089461668	-0.009302756396770352	-0.001933486767662357	0.006982235693084171
0.0005951515521806113	-0.01417454047310389	-0.004145997489149286	0.001809291183540768
0.002816951537430924	-0.01645029267321365	0.0006620102650159358	0.00142230203445202
-0.001911445271542015	-0.01400802388901267	-0.00444025391517567	-0.001631539583644309
-0.006057102166737311	-0.01237999573922944	-0.003622530658670335	-0.00409062199978042
-0.006066950273790976	-0.007564390123840256	0.000673035763921928	-0.001916278982613132
-0.00732121939495587	-0.003948674203128763	-0.002948675135679416	0.0006572269443789157
-0.00410848004821204	0.01323140862631098	-0.001368688326408161	0.002950032050942605
-0.001271745211898219	0.03063039621971358	-0.0005870904769368677	0.002090237312932961
-0.001451790880383446	0.02983502804778421	0.0007313838296963416	0.001616788734355048
0.001092277491197408	0.02268135885082145	0.002816106160922603	0.007919137043299022
0.003547084724187064	0.01269882400938228	0.0008144962550902976	0.007534361204220397
0.006336221754954669	0.012085665258757	-0.001155421521266901	0.006550545517721012
0.007383810119297437	0.01618184637247029	-0.001748764964352375	0.005364459701906574
0.009124199941036002	0.01251371810515653	0.0003588574461991067	-0.001345263507037432
-0.0005315915923154454	0.003791302413336798	-0.005428376910248433	-0.01223794051726226
-0.004127740047041936	0.008125662793838489	0.0003876503617846436	-0.009107133535403223
0.01129974924139267	-0.01141684856204204	0.003143489781217303	-0.006143345900383056
0.01197397793218403	-0.006062118982295311	-0.002877510804647411	0.01070796253718407
0.01458740626805766	0.004144844658494249	-0.003106753892392131	0.01308365392129335
0.01444309199820088	0.01533168587562028	-0.001055522689926511	0.0005021756288551514
0.00663449557811383	0.01533406440858405	0.00332242745811385	-0.0009699864063653378
0.002481473220361333	0.0170354593959983	0.003366765839108092	0.003270170745667311
-0.003121561957525336	0.02048026919749062	0.002072173160118421	0.001343778326361663
-0.008514945103118916	0.01056964503994908	-0.002566052656561961	-0.001423687160119873
-0.01236263480095599	-0.010144331231366	-0.003700688731204397	-0.008330469763990298
-0.02786317708350466	-0.01410620370514586	-0.00200957661746384	-0.00937308828448221
-0.03061672073374405	-0.01168949440863333	-0.005378528888651311	-0.01740336543577861
-0.01147653411218575	-0.01276640609675998	-0.005760344743059437	-0.01255625814216161
-0.01133137937993595	-0.01973935169014892	-0.01001896409282113	0.001267007824949873
-0.007014732137959835	-0.03262040849201008	-0.003115569221514557	0.01539352556030618
0.0002047079862211934	-0.02539423168908195	0.007328526902428331	0.015055125790902
-0.003014360901089429	-0.02497670096790814	0.01908192756010672	0.009258408189970384
-0.004236391866392426	-0.01866451322503453	0.0139324672280365	0.003217211707040087
-0.001275247789690495	0.0004023879555755784	0.006872737060524241	0.003369107998524377
0.000722135790852059	0.02644574275168127	0.006422784068883594	-0.006566374593293912
0.002862106399887377	0.01976311831093693	0.001570029924257969	-0.01086615908430036
0.002811738622195745	0.01729578003815092	0.001774103581663886	-0.01513858240542733
0.008188375178950606	0.009235602683167549	-0.005255347143992666	-0.007876572736698832
-0.008505940268015051	0.002314973329370034	-0.01296104874440043	-0.00221268223128603
-0.001436677057244983	0.002724260833391431	-0.007328062856484672	-8.285063488151697e-05
0.008141669231268564	0.002642554507641406	-0.004484204769027582	-0.001157729394455678
0.01308959857315755	0.007122338296320518	-0.004012276031941372	-0.0003104358682288665
0.009009226641103324	0.005877821159790748	-0.002253382799102633	-0.001401557171411596
0.01113087597650362	-0.0008567040348865677	-0.006363668379939125	-0.0006143041297502647
0.009853288912168055	-0.0002718659391510728	0.00401030556501778	0.001570173479539287
0.008794411963439577	-0.001142135083954744	0.00539517658756774	-0.004197788888650678
0.01289111528469569	-0.0009128095588208985	0.002163890163393933	1.345412994767858e-05
0.005453293434321254	-0.0004975770745615335	-0.001101264105932588	0.002482323397086171
0.004086280705960051	-0.002274612801750477	0.004680816303167893	-0.002832676996981898
0.00184367687193898	-0.007361173172960315	0.002650994688023055	-0.004785871435788304
0.001168205028604535	-0.003863670541314731	0.004877887557087321	-0.00546354895024041
0.004700413005978923	-0.006587299502512372	0.005840886461047854	-0.001002348636514868
0.001668939460894283	-0.00234901076968728	0.002032562995047488	-0.0001200064313433765
-0.004151053196091732	-0.003695475149541761	0.004138674331853104	-0.0005481022513063693
-0.005887851587696879	-0.007928267880681499	-0.002884101973173334	0.0006180137236165361
-0.006151227045801211	-0.006850627821159984	0.0001748109454572828	0.008644778219376594
-0.003565353291329778	-0.002671627702619679	0.003465283908265732	0.008112174795432962
0.00163403424180624	0.0013296335445713	0.001727674698557853	0.006185912793474893
0.003886862659232317	0.003085913619730787	-0.001073991460693305	0.002900098265468685
0.006857103192658901	0.001033456085115863	-0.002878414508377122	-0.004737923030895619
0.006676469475523208	-0.002209901339380549	0.003946937904556666	0.001565237094821979
0.01151865457278384	-0.004498598100249632	0.006335649468770146	0.01785876675081993
0.01143500833286991	-0.002498705492692376	0.002696412846891318	0.02003675015119872
0.003576238396917751	-0.004018605094222674	-0.006843645772326071	0.002353884381538618
0.00119762397982147	-0.00261063705641481	-0.002746516392037482	-0.001047832174531014
0.003314365025773065	-0.004929709161285111	0.001028538582525852	0.003282104665970963
-0.005645990413495058	-0.002883633147876066	0.0001297579878633999	0.006083940900171512
-0.009419281443134425	-0.01158206339309758	0.001251695053454924	0.01067451974519662
-0.01260562939740119	-0.01460112313306923	-0.005150705918175259	0.005008701668514868
-0.01510760331259833	-0.01572675629468529	-0.004238901816816084	0.0009107599261792738
-0.01373915496745507	-0.0134968503706669	0.001483443526538811	0.004078985159742739
-0.0085372271133747	-0.01408630479969967	0.001743948800449964	-0.01124383598892031
-0.005036160291779999	-0.001625403801458851	-0.001947332057885258	-0.02121107618392797
0.002930870625497468	0.01192898959264294	-0.0004474385280806158	-0.02277511983635872
0.003683629867148465	0.02701687348459367	0.002846105667514983	-0.01804998949950786
-0.001114507645686425	0.0250520840427993	0.002122375347002428	-0.009196847609332317
0.002770797944270942	0.0195006690997564	-0.004538956881194926	-0.007633051924703847
-0.001133684877919136	0.0108288826109069	-0.006325146261851931	-0.006199628059736975
-0.0003528082247951081	0.003083766044714201	-0.006821977849698656	-0.006313658166929748
-0.004872525442189799	-0.0003364410009496859	-0.004873197342042113	-0.004013871758686716
-0.001545570073500536	0.001066145616896127	0.00157074149513531	0.00283278107155165
5.140408839431922e-07	0.003530903708456469	-0.000661430844873439	0.002820614613246128
0.0004509311238730445	0.001421989988573727	-0.00464360990368555	0.001438067982278965
-0.001957316140150314	0.002411070947085058	-0.003845658703487516	0.001414107532648413
-0.007100057080242837	0.003630091975186906	-0.004266572883042362	0.001485197553587578
-0.003728565810788011	0.01095442881438841	-0.002863906814945031	0.003218524002954878
0.002724186437948532	0.00955675970179418	0.005642869661255487	-0.008435435009322314
-0.004469885284123946	0.01416440639607197	0.002269309968791701	0.01422137544693805
0.0007221311795066821	0.007689878445012255	0.003874581520837857	0.0112150681058296
0.002621699025244412	0.01205677286120995	0.002871429839471856	0.006942287731652169
0.003629403235759632	0.007898822034062312	-0.004142675777844451	0.004318302990202502
0.007575614770997193	0.003331596578719022	-0.007494454041461064	0.004966135836252189
0.007117607213940456	-0.007975418176862082	-0.001356900028107845	0.003139586088440554
0.003558703490259586	-0.01652330839097904	0.003218012778549989	0.004148946312393264
0.001243369918564381	-0.02321171921406134	0.00192005141629408	-0.002938357384814187
-0.001755382037005608	-0.01696137543725605	0.002448774174349387	-0.007194267175831228
-0.003339848542067407	-0.006165719300392199	0.00256778517286233	-0.008853945283319582
-0.006708003814336862	-0.01219767869164675	0.007730562155325782	-0.008589709151705302
-0.005636555498573124	-0.01537930089025945	0.0008322997257214679	-0.006540036355329676
-0.002820895892499451	-0.009523735657951969	-0.003179541890339492	0.0003894392479299501
-0.002333345573608057	-0.01260696206070715	-0.001896841786443113	-0.001627898160611645
-0.0002213549263484849	-0.008919825696345531	-0.005067670537136082	-0.005380569509287136
-0.005960251003268881	-0.01836594216999462	-0.0003825829769441219	-0.001852443782057624
-0.004362834534620674	-0.02325202988804038	0.0001413050414108284	0.001141968733264621
-0.0045528783372172	-0.01583581606568834	0.003716720052364773	0.004448139122582666
-0.00598614614609233	0.001268656945128089	0.006537559595136162	0.00498569624922604
0.001349407530991995	0.02821872229635122	0.007721266837511109	0.005807883750762366
0.007060568967586873	0.02989024377503913	0.005311413324873147	0.01919659479775008
0.005092597846900746	0.01749268552958087	0.002731210705283896	0.02183480587471696
0.0007848001905725376	0.01508386006420512	-0.001386511649695596	0.008094690752591218
0.002365929548656071	0.01442663716018713	0.0006523114268694837	-0.001462612077718319
0.006538929291863969	0.014678734086085	0.0007910213077449262	0.004645534974785597
0.001681034932665631	0.01859515697279175	-0.00304498047568216	0.001063883316764418
0.00583205992748689	0.01906148306078039	-0.002559145215978783	-0.0004958978099831068
0.00964281318503969	0.01029265804869096	0.0008189663653137005	0.0001320184282104032
0.009767780470948664	0.007023203592420396	0.000311889060790364	0.001110346083389984
0.004966718206615667	8.069860132011304e-05	-0.0006876385044170797	-0.001835210384629473
0.002487246354412452	-0.003610292591800728	0.00035290611146245	0.003601776286756184
0.005965710177742674	-0.0004186964992982477	-0.003357004867462425	0.0009790387916581997
0.003806889825270233	-0.004906882769029415	0.004073110620835639	-0.01303805020963178
0.002875653953008169	0.0006473276273574566	0.002090198490730295	-0.01441084558470646
-0.00152080382296771	-0.004508000669798661	0.00543971874919103	-0.005205857551650231
-0.005522649164063503	-0.008811399190952205	0.003947474405289885	-0.0004252242081678879
-0.008054697355166328	-0.00977042323292727	0.00718761728349204	0.001809904302425326
-0.009065262057310503	-0.01590375490014699	0.005173815447163724	-0.004956489019949834
-0.006307109570128947	-0.01413807542855858	-0.001792880872992738	-0.006788726723358673
-0.01527925812442383	-0.01063797165625096	-0.009175132715277846	-0.005898638319737506
-0.01051459615834107	-0.004971008514702834	-0.004332578140034455	-0.01138044656647415
0.0002299316006317645	0.007210309012672094	-0.001361284289429572	0.006888197699517381
-0.009016805524044012	0.004405381495824494	0.003098246791851946	0.02397152692924724
-0.01065147886199289	-0.00115737119044162	0.00188030936663625	0.01087428741351199
-0.004156460679502067	-0.001916510422001932	-0.00267319972324137	-0.01521883059767742
0.002331292818680998	-0.003835036827744783	-0.007393662850146734	-0.01337914508894961
0.007791347064485789	-0.00298353328688002	-0.01348824041963779	-0.005580963684352945
-0.003770213439855386	-0.005020851411491083	-0.003553793688406145	0.003694816331024101
-0.003470418076463013	-0.007358734089062424	-0.002473118092861375	0.00147990279459428
0.001010190126820453	-0.005769334260100072	0.003100879427863989	0.004031598488060744
0.004412213391507222	-0.007565771728391702	0.007954325595961763	0.0113474966795242
0.00781247377554259	-0.005111397057869795	0.008809516687446858	0.01215379194333313
0.01097307614147379	0.006060578537393348	-0.001537182218787318	0.004494701493705055
0.009059012002302403	0.02869164984122026	0.0034779065902428	-0.003463008524242054
0.004708330457732307	0.02636344341941491	0.0005111158764028805	-0.006571580537327115
0.006006888981964153	0.01636058302775801	-0.00963400619387173	-0.0180742013195298
-0.0002873460727806292	0.001115915220200688	-0.008620908629570661	-0.01968661417640633
0.001532659853498565	-0.0008320923454702886	-0.01217156107397322	-0.01447812716550606
0.007532495799040575	-0.0008996927821500033	-0.009312087580507371	-0.01232364708676335
0.008684045079232863	-0.001448720013060951	-0.003934391138709909	0.0001688064045254428
0.004052177991379738	0.0007576106698894593	-0.006176781915797596	0.0002510602748751982
-0.002250200097919277	-0.002477452672414291	-0.004303415961162188	-0.001724840667729787
0.003648601552791537	-0.0004188142301086259	-0.003706299643290272	-0.001808177905736207
0.003677573207162568	0.001710102095024957	-0.001327760201407527	0.006319090028863827
-0.001529417498780897	0.01065520892481912	0.008867111462629002	0.01466569694721872
-0.002972663957497407	-0.0008287638179705059	0.0153662699896547	0.006609254616957509
-0.001553307544629811	-0.004096723149624849	0.01877416137732473	0.01645788410586481
0.0009152976388014136	-0.007076541686247884	0.003301307043328105	0.01302544310870999
0.001701062923907305	0.003635266914353872	-0.002516440305250183	0.01248558204108683
0.003553501887279847	0.001873587163724931	-0.005450712854886654	0.01200990233585489
0.004468071291517718	0.00250367589508483	-0.001177163195121485	0.009837773273783311
0.009732516803346849	0.004401753317084128	0.003082594328375586	0.007579749905826275
0.007488550567745837	0.001738981221560457	-0.001889467887457215	0.007557101167850551
-0.004076456079995952	0.002508740500714377	-0.00181217591219377	-0.003488153416296703
-0.002608190278134527	-0.001467017787472669	-0.001151545520210999	-0.01063069968641843
-0.0007400174650208913	-0.009534727852105367	-0.001128872728266509	-0.01347448515976711
-0.001795021032770036	-0.008820565097638056	-0.001732429673888445	-0.01002068643473733
0.0005197228175871176	-0.01516172502091014	-0.002001411135328565	-0.005879567707467012
-0.001941299443953823	-0.01586085017885052	-8.748921825217805e-05	-0.006822318116636293
-0.003212158678933257	-0.0169745614004598	0.001861544638822418	0.002252146931784884
-0.009510976090655812	-0.02192763202082732	-0.004689542858938918	0.002488308543588003
-0.009068647039396307	-0.02688542095563778	-0.001845383337573738	0.01333003051096487
-0.01005613804971302	-0.02379034937076947	0.004475910681441268	0.02692170964225073
-0.01169793588327908	-0.01790822986851951	-0.001638833703530785	0.0115356669528946
-0.0136059365314591	-0.00535463846127589	-0.001874029483517544	0.0003302179385699928
-0.007005393296504645	0.00933407009533282	-0.009823284184471251	0.002596420783192619
-0.004648644892396549	0.01824547846461466	-0.002859924746560371	-0.00273523888492745
-0.001337551612210893	0.02850520462015593	-0.001231896306977136	-0.002572653531365194
-0.002055331385458831	0.03015666374164082	0.00186334479113638	-0.00134716948099353
-0.0007788717686345058	0.02119754012167603	0.006396903171454508	-0.01438024508335841
0.0007053421760390218	-0.002112942519393477	0.007230995433108779	-0.02364761224355151
0.004846446443295021	-0.02179375214460833	0.009702583190563477	-0.01222380484182447
0.004764480565061431	-0.01826665074647841	0.01003296617240449	-0.007311183576053064
0.005128608021759682	-0.007180820515646897	0.006195057895588701	-0.003820688485385775
0.003041548161395094	-0.005546370808993259	0.002118734402717272	-0.007351863493386254
0.0004991265682173404	-0.008496458641594576	0.0007558969579439306	-0.007718604449031186
0.001852118427234157	0.002104503427658398	0.004429036268894206	-0.00348852307219378
0.002601141675128395	0.009663764002981646	0.0007345884923773627	-0.003235748306036903
0.001051370416083077	0.04008413457023434	0.00453259872475014	0.0001983694106774155
0.002943647818025008	0.03247109920253594	0.003470626148593526	-1.179692839378503e-05
0.002875502958804844	0.0203929793945453	0.005731674288565338	0.001977251663094808
0.004252321174458655	0.009681596195093969	0.002301225602198283	0.001745820438419733
0.001174370420630886	0.007938074419429314	-0.003231422495885685	0.003477796189639244
0.002020026858297894	0.004862845865951344	-0.006126444875062	0.002997903416825653
0.001283903370966743	0.00341200137149205	-0.004917110661982104	0.001022969690226998
-0.001129248360049528	0.004064826477383389	-0.006021315989250905	-0.001392498540706901
0.001338514672759646	0.000298458427837728	-0.007670359025205542	0.002575516835297534
-0.0006890890673130251	-0.01237899990968523	-0.001384446252570316	0.002427174067340882
-0.002844613852750061	-0.02016460847558622	-0.001790415378145647	0.00301805718316238
-0.002623200335134616	-0.01725285112434708	-0.004686311680512622	0.002653201288648764
0.005240817718342955	-0.01038160370406638	-0.009835196360028966	-0.002345534954792693
0.007278001823447698	-0.009586070110962233	-0.006759444306400041	0.001051557025143786
0.003440264474334894	-0.00594881065946664	-0.006919529384864814	0.0007103728275197477
0.003318121685039099	-0.003298778857314424	-0.001512538869717132	0.004204465676318407
0.001804286458910102	0.009034912389864612	-0.004987041093462833	0.002569290874102689
-0.003409928225836408	0.006508940250224536	-0.001520603775125632	-0.000937631142126753
-0.002696807482763806	0.0006579806892798122	-0.008642305260779713	-0.0003890075643272677
-0.004080416624258839	0.005440562343027512	-0.0005042706748317423	0.006055602746465555
-0.01192739674922398	-0.001360966588641864	-0.001877660792082658	-0.0009638045900437591
-0.005266577959331546	1.177278288885576e-05	0.0007640395181798537	0.002022275883146893
0.0004230174260637147	0.000770711705008151	0.003500439462740854	0.002321380012268523
-0.004887698982924262	0.004381599661389347	0.005070383924874135	-0.007964888181961052
-0.003499330315170108	-0.00977132303180313	0.009230662565625675	-0.01028762304601546
-0.006835055305497753	-0.007823122121792831	0.01064140663727865	-0.002637826541766298
-0.0004551188435631995	-0.004869807257040111	0.006548591834838764	0.001933838795196311
4.125020988264021e-05	-0.002308719270917729	0.01169174756547551	0.006607622853265019
0.006769161746513462	-0.003288574864592522	0.01214716217484496	0.004106438951464545
0.005361882315755875	0.001892148704747409	0.007686844523788493	-0.001411872787815564
0.0081000420949786	-0.004083567061814575	0.005167241075939214	-0.000744834558282963
0.008541167801073335	-0.002928800523333666	0.005372547036437171	0.001647993048617561
0.00034737004448521	-0.005570203070277111	0.0001694569431767998	-0.003403573667717555
0.001558489887831634	-0.00799526543010759	0.001312734519726935	-0.006207535559572577
0.001366197722036714	-0.01183203729706769	0.005220266860387337	-0.005880401860171553
0.0009206413300910403	-0.01453910972517989	0.006100372624967425	0.005052254081522017
0.001867042879344555	-0.002317116421766077	0.00527541941668891	0.008210825605532712
0.001960969021391472	0.02179209994273872	-0.002063283232663538	0.001854626368431031
0.00231821147192699	0.02931596647049361	-0.002636327753142723	0.0004374560643832978
-0.001443940908155951	0.01769060846059193	-0.0003002974307037261	-0.000775115380690183
-0.00205744760529527	0.01000039444250236	-0.001231687216165991	-0.004374026789063261
-0.0009958072265921058	0.01587928673149766	-0.0004239092894039546	-0.007029136579337796
0.000105788672666903	0.01768811712329336	0.005741087403042238	0.003976235608674976
-0.003763561127848644	0.006570881883995141	0.01383870905224747	0.008761699654753921
-0.007164144773114525	-0.006622152803429476	0.002972205746513435	0.0007918740873577915
-0.01197720900583199	-0.007789153901955093	-0.0001489741620491963	0.002067342030886081
-0.01324167453015381	-0.005432324123033763	-0.003851710916447644	0.007050462795241723
-0.007027674083818178	-0.009321618000142338	-0.0001653014597705514	0.01802669927434996
-0.003308739290235928	-0.01142074303463954	-0.0001905587285570019	0.01466436887116937
0.002105202476203443	-0.01730156562376493	-0.0009873817024948722	0.002960907885020189
-0.001777184845399273	-0.0180627603741844	-0.001739663369660405	0.0008206000547473623
-0.0001980541066048049	-0.008849001922160605	-0.005644399673701542	0.006551999006395255
0.003980785712328316	0.0102085357715186	-0.00121958872533278	0.004739300454168867
0.0006375006233297087	0.01772267915564334	-0.002596110188236286	0.002280003813172484
-0.0009042719987866496	0.01588304697003739	-0.004471409124390537	-0.01844193264816995
0.003609225641290864	0.008537218437620115	-0.006327971498196944	-0.01345586296950415
0.01008032745016501	0.002180240780412476	-0.009274161029638734	-0.008693876513178104
0.01606205825079132	0.003315192188740891	-0.006436227852252685	-0.01373122643849329
0.01817914279299492	0.002180502977200743	-0.006391519202071438	-0.01979323831369693
0.01237165668666412	0.002498260667826982	-0.005388319499597677	-0.01296914981736783
0.004576233079140207	0.006534681740654853	-0.002006484859706706	-0.01246229568867273
0.0007767973604838009	-0.004769294385552377	9.291445048792803e-05	0.003389447034961715
0.003085172944081086	-0.007171581573893632	-0.003777494159205233	0.009503950506080704
0.003773476084994647	-0.006938870575021786	-0.004777069513569916	0.004156519619818532
0.005843030200498165	-0.006050462281564046	-0.007179513815723937	-0.005564900997243442
-0.007927663232026811	-0.006923002478801964	-0.01004037661323945	-0.004011953241944532
-0.027776030022162	-0.006763860867727228	-0.01212192297309139	-0.007680027504238788
-0.02109329272434135	-0.002853248458684417	-0.008427277585117196	-0.00706131185797818
-0.006621565815077373	-0.003589433645246409	-0.004151539125944836	-0.006283460569693644
-0.00620549518857873	-0.005843490870131321	-0.004613094791561144	0.0006988590524048099
-0.002233874140394123	-0.004985357068374178	-0.0007603817409053851	0.001794483429566023
-0.001112078102280888	-0.003958387407366413	-0.001720629312012608	0.00338365215941736
-0.000547781786335463	-0.002916258032190115	0.004171450451286016	0.003958073567821839
-0.003449112571514309	-0.003404480331872015	0.01012715088437072	0.01168406081690719
-0.001156060442984072	-0.006153476472766873	0.01620793292442824	0.008153568999981533
0.0002814654563373362	-0.004880065490407934	0.0008654458151741422	0.003559954601548683
0.004299025933642254	-0.005792031198614545	-0.005969486961616737	0.002858946724934657
0.002923108832140165	-0.01430427352141673	-0.01063763348152539	0.0006641278581053621
0.0003665077332262546	-0.01690556656691754	-0.00604161044922951	0.003900066052833935
0.005608169819885756	-0.01358071296216376	0.001914292047218853	0.004864317137887169
0.003996099731006506	-0.004939170311409109	0.004189397161915003	0.01394143988743058
0.005933852523262542	0.004139152333984211	0.001608082107991981	0.007922233380879707
0.007798552195179513	0.01563884787925864	0.004460183108047509	0.002009783971232549
1.149021865366748e-05	0.03902004411426246	0.002505431594708284	-0.003192276159182294
0.00344647545022934	0.05002050998691947	-0.004957957550395053	-0.001163252566868193
0.005450220046252086	0.05621656881488851	-0.001277838425637187	-0.003159995351238359
0.004791891273608036	0.03433681494821102	-0.002257199301142081	-0.0009115800558670417
0.0002904135624453186	0.01069694675426989	0.000767373852316271	0.001653705343324268
0.001078758971786858	0.003246375586018872	-0.002367490735030582	0.008350132445359105
0.003455336157156217	-0.003462918003801886	-0.003618523114096477	0.005844552626128503
0.004860387466460225	-0.004612979244420027	0.002961311187963909	0.006697836105725677
0.008650202405351552	-0.01403735973456637	-0.0001779253437077242	0.005292259406597946
0.005739272343176609	-0.01380618283412208	0.002328838647748259	0.003157315106840462
-0.0002275969983056475	-0.01543603872894778	0.001791192610987345	0.003024862698184174
-0.001451267061884613	-0.01513503040327964	0.005669420021056837	0.004745532266119482
0.001651432291962098	-0.01824813200658953	0.001648665357488997	-0.00111900436306515
0.004588007432731632	-0.01038335371131523	0.000899175481100504	-0.00397368636767446
0.001115501590525088	0.002053151916344206	-0.005016345212029639	-0.002035276799510994
0.00125695751071686	0.003704892202746538	-0.005523495904531343	-0.009644326917747661
0.002099498208964626	-0.008260209748813347	-0.006070752269546243	-0.01727031792702892
0.002714246626586708	-0.008956261716020925	4.22242707342489e-05	-0.01376195364755275
0.001646600621839453	-0.009437795079894772	0.001795721363785583	0.001583730291437373
-0.01430404137752457	-0.009705923105836822	0.00225243688874937	0.01731294534961977
-0.01567372293548375	-0.01524994768088461	-0.007036316054556886	0.003359702864325306
-0.01382621167947824	-0.01211785533527696	-0.0007928971654259422	-0.002277102422976315
-0.00959682960324409	-0.008866286927814921	-0.001290015774995486	-0.003146615197108432
-0.004578653628322779	0.006639100665923432	-0.001415414765703383	-0.002484645793299367
-0.006868101014636332	0.004608687520406658	0.004212870551047475	-0.0008359589569815627
-0.004438236397242172	0.00813339131670268	0.001815977023262503	0.006780636961774285
-0.0009410183815165517	0.004489499185256523	0.008644846932076695	0.006909754599522909
-0.0002523503738157889	0.004474705961808676	0.01127687859874992	0.005489054794450963
0.0008127420247040498	0.01215585324169072	0.01137802565700789	0.0060143872697122
0.001977629242230858	0.0156675848834304	0.005412825401958415	0.007037229522696953
0.001897480046460916	0.01570154641676894	0.005296525586482291	0.007715467518421251
8.428976625782074e-05	0.007830084768266609	0.007054265343853589	0.004441205880487258
0.004627681378647388	0.002400647676161637	0.006872848718186384	0.01620687713113778
-0.000649239627925945	0.003363501200616657	0.001953090138033461	-0.007798210115640431
0.003804614954654904	0.006991690748206025	0.006867274712258891	-0.03091923423922063
0.002470288731808627	0.003079848619349122	0.0007898908162972942	-0.03043985829979111
-0.00640160305448565	-0.008967083165548041	0.00123521954764405	-0.02087725329645972
-0.003097689944212646	-0.0121773511025923	0.005299741326181815	0.006180158456851242
0.001158399790314554	-0.005901956995809105	0.003972593583140077	0.001132653798451195
0.004910171463952947	-0.005789185081179993	0.004412303381228499	-0.005445834579478732
0.004511336965119536	-0.009908869775327784	0.001137514613775955	-0.00333365626001315
0.007828082579845685	-0.01514454016628825	0.0008856486258656421	-0.01023063922310406
0.001931148371611789	-0.02526435870117552	0.002077588808435602	-0.01576294867679689
-0.003148547357778835	-0.02183944616577015	0.0007414949959237127	-0.01726733942019604
-0.002226048744920416	-0.02066198757743722	-0.005152263934935087	-0.009492965671385608
-0.004516895052970474	-0.01669030371849452	-0.004602930660495244	-0.004208883378041408
-0.001800486814148847	-0.002907348779001821	-0.003657024769078203	-0.003412738128805349
-0.006504491651563396	0.0169169281479365	-0.003694882799225049	-0.002025771097239429
-0.007918568203288278	0.01762300741567039	0.001400273783590021	0.005925508601256477
-0.005692491920581797	0.0002610690467958295	-0.003186159050280698	0.009767750990599774
-0.001502133519997727	0.001144735649735915	0.002195220126843541	0.01289755451258215
-0.001465271354403605	0.0007553135261632682	0.002309467759490529	0.01110769023219578
-1.337440227107626e-05	-0.001446343366862722	0.0006026819842291314	0.008775240982045122
0.00149109384082854	0.001369970290258852	-0.0007672726207022689	0.002630879112736006
0.0001997555848584498	0.004043658679839244	-0.003221252946687279	0.0007551049631589852
0.001957933125937313	0.005422590142095891	-0.003094929165954457	0.004054660191648917
0.0005462870469493597	0.005957109674536108	-0.007157580350552181	0.004858068674848907
-0.003037132673926021	0.00245126373013718	-0.0006750307937334952	0.005736965387391118
-0.007287515017893468	0.003583888156593375	0.0043716839665249	0.01346302682168537
-0.001135922162003681	0.004002881979684836	-0.0008220690974096475	0.009318646055524963
0.005338049214604659	0.007125807090253306	-0.007670656752442936	0.003976454657706035
0.003001716665716735	-0.0003904136053321753	-0.009418418473668085	0.004108320185726207
0.003589315569596162	0.003242395064161462	-0.009772694305733715	0.002747078219268455
0.005886523649905853	0.005809542703542492	-0.001292287550184403	0.0005508902012241814
0.003223340243273072	0.00997490317086196	0.0008157680450300723	0.001879699263031446
0.004306061520568348	0.00496350462674674	-0.0004673775124435815	0.004406799546930084
0.002982511793607548	0.01013077248390233	-0.001716161037001249	0.001427406517895688
0.001471940636235876	0.01180908741263194	-0.001892361332757542	-0.006627392853673772
0.004823781656188326	-0.002263227850245683	0.006309968274202668	0.000659700074440389
0.004971741478701829	0.00298826452467948	0.0065427862662634	-0.0006342722817312276
0.001917749877225047	-0.01163298623256307	0.0009528479018617961	-0.001777504562027029
0.00249285409203122	-0.01431980904666983	-0.004903140429113309	-0.003633274723273273
0.002137695269493063	-0.01474010171900222	0.0003376797080918231	-0.002384385720979897
0.005850726259344405	-0.01033072773872594	0.0007134468877137847	-0.001942280274073604
0.006971335539452621	-0.007833759188426485	-0.000405613766089944	-0.006590342497039822
0.001362264335303758	0.0004330108220144373	0.002352708074476914	-0.007926651986546306
-0.001388840295792213	0.01672198168423075	0.0009853271232894019	-0.0007618859227300403
-0.0009442891247187107	0.01102123394624647	-0.002589877351034753	-0.002981239627175953
-0.001180343539179384	0.01039930678740908	-0.006340400396881965	0.003406073298473424
0.003025248948889859	0.009662717187831947	0.0002324234930239131	0.008724512065816118
-0.004362889866588776	0.004202669862554898	-0.002199293739566648	0.01214600021804875
0.0004764310111925878	-0.0004870597680359152	-0.005228101962786045	-0.004987044371334005
-0.001679432395506133	-0.002798062087739077	-0.008517546042403526	0.002168045908872697
-0.008960043325609669	0.01018141927930202	0.004953620958146079	0.01421206862714419
-0.006027357859936265	0.01543347222399865	0.008195783013029123	0.001385739239002204
-0.007228963742417031	0.01032002263289418	0.004340953431153169	-0.01901339158166089
-0.004437104407776209	0.01192310465133146	-0.0002333660964232832	-0.0147861421547531
-0.001853926453417396	0.008291034137500552	0.002229612265364791	-0.002895748413091591
-0.0001473309747590664	0.009880410271825646	0.005165636173305269	0.009331681636857797
0.005458505346869877	0.008253370818299369	0.003818442118056767	-0.0001959700207522691
0.001740074218988824	0.002016905108415068	0.001492997794446275	-0.002192957278938822
0.001655629726199715	-0.0008711894653089919	-0.003389584479247216	0.0006777288104644664
0.004249368620895467	-0.0001570643213123341	-0.002717723974993155	0.003095443994414383
0.005440879668049047	-0.0005874819140746168	-0.002382544369115518	0.004188936004900336
0.01238055327076148	-0.002676204623200022	0.00287135799701918	0.002948421163771416
0.01073815694543838	-0.003484064649994549	0.003023906769112603	0.002513550811368308
0.002807249266591968	-0.002514118471408282	-0.001060331953241065	0.001341531043383898
0.007691835159739261	-0.006544913777053254	0.0009360379360423399	0.005235512614243358
-0.001912455556191778	-0.004399034976006731	-0.0005424890611348348	0.005529557615993284
-0.01278461600950372	0.00157382323549328	0.002933490049153761	0.006220090632855701
-0.002567511235307958	0.003348021334325961	-0.00352144609151148	-0.002253358100204756
-0.0108705427483517	-0.00530641821907962	-0.001249549229450917	-0.009141096994636911
-0.009482438872351997	-0.002589390963499488	-0.0003944757084039071	-0.008657541438760652
-0.009381318319009523	-0.004905032222125924	-0.001034846898723542	-0.002701975587047939
-0.001011467152232705	-0.008140341109785149	-0.003926166033117582	-0.003260973662705351
-0.008224089455094501	-0.03043124164406339	0.0006142328431469912	-0.002670902127972998
-0.003307663504518931	-0.02479522014057842	0.0003487803820884478	-0.001627509142305997
-0.002259762733912311	-0.02445303149613803	-0.002001031575747555	0.001928837126201106
0.00608381538923747	-0.01538207606743026	-0.003044589513353444	0.002784792204357533
0.002192301759168992	-0.01562867638383614	-6.2054475150266e-05	-0.002440646240190231
-0.007266668388010641	-0.02063421115220114	0.003601393285422898	-0.002308697621707858
-0.006049556334262003	-0.01635613790409809	0.002305333138872111	-0.004584322596842345
-0.004728690915261208	-0.001193434241915726	0.002479779886938382	-0.006672201418636878
0.001057203639556514	0.0238771363871913	-0.005001059758526388	-0.003041574720585827
0.00368025741973388	0.0223890985107396	-0.005030764439878682	0.004438451068037344
0.008226173541634345	0.008050853424460318	0.0004206003815443875	0.00371531286989976
0.002715033968166681	0.00547339276580923	0.00131111906790099	-0.0004012730180748958
-0.0009496068440801735	0.003936399032012937	0.0003034042426641539	0.005677232755118841
-0.006457217227690774	8.081011545893775e-05	-0.004384071166576353	-0.0008596960918003541
-0.01201505199133313	-0.0105551550298599	-0.002929044140640965	0.0013239344528065
-0.0002619117310470136	-0.009906873482799733	0.0002177771753693033	0.0003010715896591783
0.001305187286314866	-0.002256123501917215	0.00286183579423075	0.00211654286399714
0.004018408984613438	-0.00521767300546327	0.00122502156314253	-0.001652563313246323
0.0004139759798949045	-0.006154697974288845	0.005877408451095351	0.001910090200193895
0.001526666432383324	-0.006563192814319265	0.000498925374569442	1.921034178438317e-05
0.0007122810000127724	-0.004694679659393544	0.001531094603423775	0.00232016605591122
0.001439966170952358	-0.006986969730090885	-0.0008728165065937642	0.001578993628221766
0.003296237009998555	-0.001113413626134796	-0.0007722655012015619	-0.0001907734488303858
0.008177864807723522	0.001519437360385187	-0.001195019800856982	0.0007268301336970835
0.007878126523550981	0.006964808413883472	0.0001783836520342164	0.001627098858214438
0.00508292161249883	-0.005701691679653903	0.001080789922657946	0.006111383199258973
-0.001240768861878509	-0.006765364528306485	-0.000444964415017341	0.002578110789895822
0.0002935508011260203	-0.0009795144279308367	-0.006004876283146796	-0.001882935472241163
0.001988043078120831	0.02273608976840631	-0.004490417128431199	0.001497629345362869
0.00679395217434595	0.01688903601409011	0.002672699232984629	-0.003347371643824654
0.009105082764794032	0.01116576241648026	0.006721735600724633	-0.00824758039213325
0.003327495231733641	0.0167197128503304	0.01157398113719182	-0.008208971979804474
0.00249976917822796	0.01632997261088602	0.01032267190190386	-0.006557507313053757
0.0002789077964028538	0.01771185438506345	-0.0008620690718503688	-0.00993382087461445
0.003454190854441552	0.01095701181841867	-0.001724644502343489	-0.005101556565417164
0.005659962838929534	0.01432619615574786	-0.004215178564316635	0.0103907097908538
0.008099496629130296	0.008567881226766083	-0.005150345879754558	0.02739320679965702
0.009741320720960244	0.005079346381015782	-0.006153749667826287	0.01244451697478814
0.004315587321209449	0.001501684543059356	-0.00999573356075421	0.0003126236717716393
0.001820311936123046	-0.001510903893562051	-0.009559075981770193	-0.000943445761308075
0.007356807325095423	0.002266607324048898	-0.002236205024966997	-0.0003029938346961075
-0.0005225119525512319	-0.004510785039379034	-0.0018550716000475	-0.001460665989634752
-0.004178520495815273	-0.001196161195326653	-0.0002737193416979957	0.0001925846592257704
-0.005677570343462109	-0.001423878173023043	0.00773979186253978	0.005610773960419694
-0.007221433484287135	-0.0008601906990604258	0.01453581095894727	-0.008013033934512045
-0.01106633286005269	0.01378912673006204	0.01438658057350189	-0.01444328760425293
-0.0171430266207281	0.005319378202202177	0.005942015867635895	-0.006966847561392163
-0.01687624845083844	0.003971606757299614	0.003601738648352833	-0.005213531137621257
-0.008378707239843406	-0.008343393254124054	0.0004338706196192344	-0.007332888557260733
-0.003603768862184682	-0.02182172589347485	0.002607915583569355	-0.006822084150905081
-0.001521851510781511	-0.02576949671424675	-0.005404011423963608	-0.007438468876223019
0.003474946958408945	-0.01424218549840409	-0.001114581579220263	-0.004417313958747363
0.001255197330188144	-0.004647318835762942	-0.004771050864415051	-0.009622940376321134
-0.006044699143577896	-0.004139074951469274	-0.008916458296577485	-0.01103778168938879
-0.0003110892797234748	-0.00402865762531829	-0.001434723439904796	0.009005467676354142
-0.0005106091554130887	0.0007688166677819599	0.004025281593469812	0.01131525535224328
0.002055094307606334	-0.0002005721575012283	0.008009814875059359	0.00605981552829137
0.00193721644196871	0.004121470847201696	0.001926413392989141	0.01057953595313814
-0.001560023298306211	0.007348301569083998	0.002208261296666352	0.001035050756701869
-0.0004898056463515826	0.003633620471232165	0.0007999738956921108	-0.01535420678835785
-0.004690500864835602	0.001997047443134376	0.007468608589342634	-0.01248294346995909
0.0003764728050778636	0.006628566751220893	0.0008344669919542512	-0.004878197685127642
-0.001893941423307161	0.001978678795533526	-0.002483397381634934	0.001702568515135837
-0.004114980026829896	-0.001183910411065156	-0.002657170272579459	-0.002915644932828165
-0.002392421634334871	-0.006839615667979642	-0.004902487155891446	0.005222562888132704
-0.0003151952298187567	-0.003591339184010929	5.464001725908826e-05	0.004425973530215909
0.003036403308298056	-0.0007045783710904123	-0.0006421039006061016	-0.0002781824204474962
0.0005395007089093174	0.004005826422035509	0.001229094814114829	-0.006215368676264572
0.003407542950572686	0.0009681426520856648	0.001848542906165029	-0.008269633898071149
0.002978335140068127	0.001940560124037304	-0.001896945150892104	-0.008175104301309204
0.005207168600826367	0.00994289494584821	-0.002418980968769153	-0.00244652476716018
0.004647419426710722	0.008730019980255126	-0.007121665479252627	-0.001073930514140568
-0.0001185502422796342	0.007236495796183618	-0.0008888739277965779	0.01939592034454529
-0.005815681503060798	0.004226994749437702	0.003918225425355957	0.04471580299412765
-0.002269968448549794	0.008894860578122384	-0.001343983016693229	0.01555659674258328
0.001932610989562605	0.007230921046447398	-0.004522025490639221	0.002514670786619288
0.005439940015961176	0.009148819135196461	-0.003325620674067689	0.009532627351469021
0.006872692654338414	0.008480519214749193	-0.008397747635279075	0.0112349363918632
0.0005357607116885282	0.0002077936882868679	-0.00827463072663806	0.006627852676089752
0.003298774041594734	-0.008955271801167595	-0.007730656494762856	0.003288958215773224
-0.003465077635355996	-0.01830691538543357	-0.0036697418610821	0.007434892403851953
0.0012111612602168	-0.01707688526737702	0.002052257582483544	0.007689208134209536
0.0002265938094811629	-0.007929706827853994	-0.003263737177463589	-0.00186417919083413
0.002443005053955842	-0.009036151418326303	-0.005130884235583988	-0.006078758263188109
0.00616256090063797	-0.004095591833906529	-0.005051627554981189	0.001771303602918341
-0.00228498211690811	-0.004802715416597922	-0.002791903234018975	0.0005289138463237168
0.004977517104936525	-0.0001022499917824266	-0.0005119093160235323	-0.001122378813275908
0.004437892165780574	0.006632545606745667	-0.002788693365884278	-0.002949517774414578
-0.0003662292092236795	0.002412532744190507	-5.532533029661862e-05	-0.009175897579351456
-8.260272838576276e-05	-0.002385212947045847	0.002157821301252376	-0.01717222002560162
-0.004100548918383443	-0.007031516050633705	0.001699412616287352	-0.01424772653253179
-0.002046125715982006	-0.002008929180300729	0.004265725169952278	-0.005782562600064324
-0.0007953716169596984	-0.00372192755863373	0.009025997900654916	-0.00445662370394845
-0.01081573830541319	-0.003743977028364721	0.01151350758327447	0.001785275222982955
-0.007193584060392432	-0.0005783138934377288	0.01510576827591367	0.006563803935455695
-0.006426714551779635	-0.0007843537329114238	0.004403470929348169	0.004315730505568995
-0.004673682442632532	-0.001511965823860519	-0.004773780846663288	0.001632098296476427
0.003400091651540982	-0.00208593766879041	-0.007279676873132272	0.0009343069579121892
-0.002085994298287108	-0.00297670862734333	-0.005779987482748624	-0.003741709739136056
-0.004559872355590447	0.0002493775204469391	0.002747196301905902	-0.006016079968261858
-0.003140029832498182	-0.001662880015667068	0.008119251113768182	-0.003413151005809978
-0.0051210303902656	-0.004473295965354686	0.007029627531208736	-0.002492507658035695
0.0003001053097497178	0.008093765533065412	0.0008040165330491565	-0.00324913916161206
0.004752846785229544	0.01109834112120328	0.001713101978575651	-0.004050363341149717
-0.001071700797868666	-0.004348758521085244	0.003711057905104016	-0.007173376837630334
-5.549727789385864e-05	-0.007123770706617491	0.004103957464474962	-0.00720458294497021
-3.134692874562744e-05	-0.003209150898212462	0.0002071505706275266	-0.003437138885736031
0.0003048050461689225	-0.00349705079280477	-0.0001525420666974534	-0.003833259453196764
0.001836834257066877	-0.006105163761198454	-0.003115039658328264	0.000219231413286187
-0.001469128024326485	-0.004153172881825809	-0.001069162203219036	0.003202657486334731
-0.005136545132631662	0.0100602520383511	-0.003658764907776611	0.009888825173332807
-0.00498047633775771	0.0285913439090088	0.003817850426996238	0.02284781521587835
-0.0008389958456038806	0.01281737398534168	0.005144326831854873	0.01136831052818675
-0.0007228070333877717	-0.005900556510610384	0.0009398448727726383	0.007370821264060442
0.003837919564826509	-0.007189601860239987	-0.0003123755532679664	0.004538798567007003
0.005257762907533589	-0.003899941429582886	0.0002178547588270934	0.001008202485672386
0.004037192611215051	-0.006913883094786213	-0.001905982224398993	-0.0008235123698663942
0.005966495084664817	0.005421463517934553	0.00539447705354746	0.002362991927590482
-0.0005349494199207509	0.005201233102060306	0.004558156021165155	0.005431999038566775
0.007205669532832523	0.01551665390494614	-0.001034593918064175	-0.009577221888046022
0.004165424123678018	0.008065601624112134	-0.006016386994873555	-0.01575347640468107
0.003652405206729195	0.001326670483251113	-0.003586073499144684	-0.01182186668113626
-0.002008257194098872	-0.004846994495650902	-0.004231171217565147	-0.005984250624728202
-0.0009378914312812734	-0.01362360043310692	-0.002906699448753424	-0.004457934228326656
0.002395931801373884	-0.02031482978633338	-0.00464659318988765	-0.007801730928249151
-0.0002504251127236753	-0.02225414241007689	-0.001559225635107785	-0.003592608970058559
0.001677759243922639	-0.02146565420056186	-0.003914483836610579	0.001829511722234313
0.004026439954448191	-0.01922083476953106	0.005696507429615974	0.006813883301467059
-0.000127314057149964	-0.01732796493521918	0.006777850952926669	0.01041878321328977
0.0003080069155916458	-0.01250268094990751	-0.004518471377960023	0.01143518812788672
-0.00205413799247876	-0.01126884909075175	0.001774477602036818	0.005194486186130324
0.001966521020436498	-0.008176530003218064	-0.002720307225755527	-0.001942290435115519
0.003170188221879329	0.003880873656796514	-0.002792613747375799	-0.007409332777490746
0.004060573663000435	0.01220582940456915	-0.002356991013029445	-0.01410825375080637
0.003197552006239869	0.02587514150097599	-0.008091020441342198	-0.01262972971035201
0.005153454713725996	0.0352155852144491	-8.109845281117656e-05	0.008729077103296391
0.01079408119944563	0.03038486818511191	-0.002036923263118001	0.006013279580151841
0.01012848374923036	0.02088638061976418	0.0003044331824920597	-0.004812087080444934
0.005703440084846475	0.01479547238098624	0.005132940012193854	0.001719056657971408
0.007379789484302406	0.00879343736555712	0.01336622318035587	-0.003293070357878615
0.004674166680711367	0.003474871645695229	0.002114181506662795	-0.009800867988976829
0.005327934529550753	-0.0009811315445932183	0.00680083216172461	-0.007425144513292075
0.005514016057078035	0.0003921172443774077	0.006515056600369658	-0.002595206204109332
0.0003252641520003672	-0.0003239966336320388	-0.006047812142138446	-0.0006294540128673988
7.914158893857558e-05	-0.0001808383652925979	-0.007107731912717737	0.006079767300514087
-0.001424478335038217	0.006705466409801228	-0.008163762804662991	0.006229563917880069
-0.00181448532561382	0.01420616195698809	-0.00399981833437661	0.004271381675585107
-0.0007665451109602066	0.01393701049136375	-0.002683912879237866	0.004003047880624568
-0.00435583393940754	0.007039259246906071	-0.01233345510145891	0.008214594228686369
4.310071614263851e-05	0.004811385580275195	-0.01330488986841882	0.002848603891757971
-0.005111626179818644	0.009238597051395282	-0.005877532766307247	-0.003304813625319741
-0.009060976139173019	-0.003806263568875296	-0.004705826498723508	0.00103870954934192
-0.003668919154050653	-0.001824922797331114	-0.002064325369919758	0.001596478606158978
0.002732741602174977	-0.002526194425651933	-0.005129058452972423	-0.0007318846232027314
0.002553689700224568	-0.01021190031573147	0.0007025413514412276	0.005720442426276299
0.002532193943244959	-0.01275915350950399	0.006415637601065085	-0.006471069878075574
-0.0008353903128553641	-0.01006662651605669	0.009887463139688836	-0.01168661154798037
-0.002463627217370483	-0.005128945799502671	0.004322876887276949	-0.007801941319882748
-0.007113984082811995	-0.003489311156235333	0.0001980755101096617	-0.004718774770205918
-0.0009925139087205506	-0.00333846213065566	0.001461620831551179	0.0007450855461943545
-0.001978471706633429	-0.004699525940845935	0.005201815619853191	0.0009417283379392907
-0.005590945335376483	-0.00575346736784737	0.01001256342685551	-0.001227418287673493
-0.01477795461814425	-0.005199428851063442	0.006408938211187971	0.00125959121539055
-0.01717641213952871	-0.003873291681063832	0.005566841253268675	0.002753217128859217
-0.01360216906611586	-0.004498975239178452	0.007898255657280017	0.007282125278285713
-0.01133825186001325	-0.004339942169155984	0.00396573967430032	0.0029442354159761
-0.01033639112459644	-0.004012040642383202	0.002455099734902076	0.0005322404953436541
-0.007557332345199006	-0.006899416379897106	-0.0007486263433806983	0.0007889504498150963
-0.002277829792161931	-0.004644708745028149	-0.006795733672636282	-0.00176793464700834
-0.003444210975932075	-0.004805205692611974	-0.003628588169814938	6.069257395822371e-05
-0.0005535570730129791	0.0002596759308785173	-0.003469470576872852	0.000361404088733499
0.002180358036814968	0.01196434968341547	-0.0002240329793981862	0.00565637331802395
-0.001264916004682652	0.01074215628626101	-0.001605237107959963	0.006917065567227019
-0.002964137545868213	0.002079979015115534	-0.002282330446292832	0.001547596014226513
-0.004876728987031788	-0.008651328737204667	0.0003370921908458962	0.00325559205277426
-0.002020651137342378	-0.02306939186327911	-0.002070624276747532	-0.001245914400605336
-0.001215651348986565	-0.02766816558513965	-0.0005168620074689895	0.0005713028555488863
2.73272454907807e-05	-0.03534445307516915	0.002794862838105343	-0.003915311184014239
-0.002435904150538203	-0.02641887329117185	-3.639675784393594e-05	-0.003456153875251854
-0.003348438540415625	-0.0124150212348831	-0.002686211622890002	0.001523734185313858
-0.003414607405480736	0.004386650670662825	-0.002506918038726182	-0.003146353651676581
0.003869156068545344	0.03843449858478371	0.002917130406230959	-0.003230195076323128
0.003838983667422301	0.02129402963332137	0.005323823814397855	0.004059054003403246
-0.001315063905622471	0.007202110063729707	0.01085650386756761	0.01524122564066098
-0.001810478049804739	0.02091757273351521	0.00709519335366239	0.0053683579250595
-0.002565047798376612	0.02136554456985282	0.004737875687326412	0.002398098651330055
0.003976444906207171	0.01043674084524545	0.004188026719322816	0.002547760336496228
0.006400500650768547	0.002040006511624982	0.00414443774171223	0.002824536267666758
0.00551074583264424	0.00655729169770157	0.003204623016046938	0.002801504066824568
0.001014792163008572	0.002029565187694639	-0.003368851034574701	0.0003031815704487156
0.004234441329145887	0.007266599627602353	0.001560666297232114	0.0007859557866593512
0.009886319765255966	0.010579106202601	0.000879881155661249	-0.002697112442847125
0.01596081945987493	0.0117225568073441	0.0006808746310660117	-0.002129496432379415
0.008833249376829277	-0.001239342337482937	0.0009602188568163837	-0.001660896578247947
0.01261413920656947	0.002271998574059422	0.004473845529663988	0.003437315792941778
0.01104713694588727	0.004654695513248083	-0.002582331426874568	0.001161885351544965
0.006992678527728701	0.00365350225104356	-0.001277949578518625	0.0003392655092988994
0.002553612657041836	0.0006583619229825746	-0.005837936826541425	-0.0001657422594338482
0.00672006782537836	-0.002147260291026961	-0.002332080561443892	0.002881335332141567
-0.0001881152838640583	-0.000554066768522413	0.003075442666219867	-0.001442518549386777
0.001097153580544661	-0.006283628508983816	-0.001571113426161601	-0.002199790737384732
0.003263911387438527	-0.009019830519592872	-2.568003550655314e-06	0.0003570892843208931
0.0006599585757322424	-0.01065476416963392	0.0007964701566188211	-0.003611465455007821
0.0007732500599325129	-0.02201774392729462	-0.004518222607424096	-0.005395823564217055
0.001194148813695287	-0.02690481906438262	-0.003111127648416724	-0.003629028789494433
0.0002892422260607002	-0.02020592301380059	-0.001402600030463498	0.01641434156834434
0.003117509219615767	-0.02053904827600982	-0.004211020366128599	0.01283552561308791
-0.003142385111850081	-0.01323409204428275	-0.00779614565007797	-0.007063418401035192
-0.004400247592713729	-0.0002464381101858299	-0.006089929639005673	-0.02250046618230193
-0.005363860723978942	0.01472290113879125	-0.005394422269243566	-0.02106542961386396
0.001487155341014564	0.02092478482372754	-0.01442946335730422	-0.005787927071451508
0.003638151147699049	0.01694625115589605	-0.004833602003165383	0.001160758935634152
0.003615872843347507	0.01898030504172979	-0.002606715166835526	0.00283581559013515
0.00109678898138309	0.007516860935925527	-0.003742818998466181	0.003548301454670402
0.005474543254414968	0.003641764081454862	-0.003070276492506431	0.001880463493830362
1.511156205625549e-07	0.005532598882056403	-0.0001524419251758713	0.002507252217498025
0.002297775294223172	0.006631217391193476	-0.00454303672196681	0.002922036553810561
0.001617317699476502	0.008379025795862888	-0.001716178412476927	-0.003803900668394407
-0.006868689638640402	0.0007333839073887774	0.002985354977282782	0.001648631998449657
-0.01586659956323227	-0.002321804365451327	0.002038246851820229	-0.001825620205925513
-0.007620658849195766	-0.002048506199528605	0.005986717860354947	-0.01178276182979857
-0.001965435910328495	0.003387036407212587	0.0102244134805881	-0.002201036960043612
-0.003320005324598721	0.007023764155799993	0.0083678563447224	-0.0001402732110298266
-0.001038661196566916	0.006946951895270131	0.006207240031401546	0.005502964833177977
-0.003206815339952909	0.000550938711228153	-0.009604606192059851	0.004547882903284783
0.003382544186987438	0.002123367964503059	-0.008889246569580305	-0.009564565685427759
0.006387178949466151	0.004175441728323754	-0.005798703832161555	-0.01017060543607779
0.0001849089444213724	0.001295537050340009	-0.007370271964963653	-0.01025395883047957
-0.002341171077096193	-0.002950007535062293	-0.01015255352560239	-0.01411443847512019
0.003063501458473576	-0.00747324729267589	-0.007662966054340815	-0.007870029461344999
-0.001479580964377531	-0.008896644265840477	-0.005524952586327731	-0.002740893068845702
-0.006675369848632833	-0.01157432299709862	0.004660789268605477	-0.001829751428121876
-0.006394669215491446	-0.006641606522529541	0.01840988492654187	0.005669723758240684
-0.002583034935020558	-0.001056806824539117	0.0107809102971359	0.007206200597346556
-0.002682804333718273	-0.002304958460827211	0.007334706583508677	0.005950904709660755
-0.0009994094184804165	-0.00394398476525654	0.008225265033132378	0.001619510279452823
-0.007267661050758075	-0.00682585644059368	0.01289457463854065	0.006518242710294234
-0.004742062389828069	-0.009243376274556297	0.01178792395504987	0.005683746637736086
-0.001573055773107593	-0.00839569627536284	0.002333665998647739	0.004260152688375926
0.0003559654037068355	-0.0002183883882645111	0.005975174403754683	0.003154790794261796
-0.002838436350494084	0.004448358445652983	-0.004656084667121801	0.003827938191628234
-0.00149882099523614	0.004548755289790066	-0.008095813479536574	0.004733156014218526
-0.00367792476274976	-0.0003440232258402091	-0.01082381157529888	0.002341623244665217
0.003611071407298633	-0.0073330631260362	-0.01318525532587077	0.001958733979699505
0.005151649713807089	-0.01301418400102997	-0.01167294092861751	0.002740850536939324
0.004263792949719543	-0.01966113596385104	-0.004606425441516493	0.001409034433819649
0.008055046109818897	-0.006027498388754298	0.001648292497299482	0.005367147105902819
0.005830131692841242	-0.002677695830852794	0.006634673819941058	0.007218902772667813
-0.003993448661568105	-0.0004572369468939702	0.004311609848328603	0.008495989959733793
-0.003654932105571516	0.01006310875498037	0.008630072460352163	0.006994166977608999
0.003387710295784839	0.02196260493302021	0.0066852197322064	0.002790840964850854
0.0003473378178153693	0.02911402868331127	0.00334395378632168	0.001255608735216684
0.001305361392008976	0.02526390606185459	0.004054155137470435	-0.0008618360190356156
-0.0003803264500943231	0.02011572930351751	0.001326075982697829	-0.001945813631586572
-0.001310442980290779	0.0110262008748527	-0.001044439113723962	-0.007544596277630103
-0.001012447481823149	0.009567708929026423	0.002944652967121308	-0.002261288397653102
-0.0003561545052776461	0.01229164730061979	0.0001591014497930646	0.0004451043531952638
0.0007919090522982869	0.006020969007555343	0.001398989061315901	0.0009195889257129461
-0.002531192893328499	-0.008736504413474967	0.003904402266245027	0.001945170304670781
-0.00434308985915322	-0.02346207325412031	0.001745965848563218	-0.002770940928514498
-0.001889872168130506	-0.03020856391813216	-0.001758991982436514	-0.003643919030911523
0.001048802167663649	-0.03656069360797914	-0.003794513242191095	-0.005994780800232287
0.0009322075528445589	-0.0387790210093294	0.001963029083703679	-0.0003575055071288997
0.002582118630878778	-0.04099826471620178	0.001860896343551974	-0.002579798944861084
0.005052545268508826	-0.02574388663286141	-0.0007758806816180199	-9.605681280057274e-05
0.001581214646350253	-0.0143918291923743	-0.003880395076160526	0.005933032189497344
0.001859764026507325	0.01817357288558569	0.004035984215375116	0.01319918815735967
-0.0002121378922074288	0.05086486759562454	-0.002844721113357223	0.00154871116876013
0.0008529949035584521	0.03907454871921929	-0.004860921152192369	0.0009043333815478736
-0.0007984903098760873	0.01784704239246136	-0.001068280803465342	0.0007430994069713417
-0.003918664246390723	0.009525757165716379	-0.003868372706480249	0.001362020165229141
-0.002569306826459508	0.005148703657351026	-0.00201439302710592	-0.002837907168770633
-0.006192456414541951	0.001169691766692299	-0.002443016951604024	-0.005666948172097008
-0.002997948097462527	-0.003656333168881556	0.0004116689644459076	-0.007506578211506333
-0.005070008754457844	-0.008330096904402109	0.001188025644004153	-0.00809946534711321
-0.003634357501203677	-0.008460729888422558	0.003727275936879154	-0.003739406314008765
0.005090464384522892	-0.001091946118703849	0.004017062982137195	-0.009719934850798187
0.005329374795921236	0.007823800806073845	-0.001028336899574748	-0.003742124776808881
0.001024536093302802	0.01589820380812955	-0.001423655902349772	0.001129198129729722
0.001454472120116811	0.02509374043907946	0.004215777566361732	0.01824144342964004
-0.0007213819822803322	0.0178005097031457	0.001694472034438174	0.01106031641086276
0.0005049207471987578	0.0162775058317443	-0.006801605629970879	-0.002812185769418242
-0.0004337099924355891	0.008760848928873063	-0.006378352152340688	0.006458604133432409
0.0006220501094546573	0.0002040509474664	-0.003093466214008655	0.007905350983464874
0.001046950233352107	0.0002949494470952734	-0.003205632594226582	0.003717198764161736
-0.0005479013934992184	-0.001519616562297765	0.003315088305185318	0.003021113805658204
0.0005086868734468463	0.004513674815961989	-0.001982652599786038	-0.00048126491422673
0.00255235209751673	-0.001501956248077927	0.001414166264668082	0.002965162349358575
0.007802899930812918	0.009076094074476343	-0.0044031998767705	-0.0005249937793454037
0.004761686711436987	0.003766470620006146	-0.001470787450235085	-0.008062421976178544
0.005984007103206209	0.002443644640612214	-0.001895904257677997	-0.01336361833857167
0.008919700110629595	-0.002286392873874295	0.001946079072084085	-0.007394178114755961
0.008735728918674785	-0.00872103136767058	0.002901383140610226	-0.003210388653598559
0.007399373736577924	-0.01121310522419507	0.00934181010614174	0.004152942797598652
0.004789488044996891	-0.01129971768970905	0.007157607097930467	0.002214114936940213
-0.0007328178006478165	-0.01585020170724393	0.00739357340329678	-0.00257721870069349
-0.0004224589136744333	-0.01203062525418374	0.00707822413717635	-0.01939957257725755
0.0009442394639607979	-0.01251905768276698	0.005001414157952395	-0.01849073679312816
-0.001012559060183044	-0.006309741244640057	-0.0003967317736147206	-0.01814604080370698
-0.002718098665754062	-0.005874191273805148	-0.0002319233766918375	-0.003040050147567125
-0.0002529306749712105	-0.01629474110009203	-0.003524827067614233	0.0009569119657329363
-0.001926631226311712	-0.02685631378786854	-0.002904756642437081	-0.001617646746619761
-0.005878566432391012	-0.02049878764448456	-0.006296269835332866	-0.004956442613309716
-0.005857810004773724	0.0004765757086797183	-0.01031850691820952	-0.004994210258345721
-0.001561316992348139	0.0295356094208507	-0.009131807264137428	-0.006186186272010076
-0.007885922753474921	0.01836129376629077	-0.0005792897380918375	0.004345984556605805
-0.009090026664253676	0.003935221764030586	0.003098399378561233	0.009366739654697382
-0.003758132960716968	-0.001058624070911917	-0.005388978172159536	0.01030895774003327
-0.00283763905556199	-0.002986692862387003	-0.005773427011684261	0.009195869521712816
-0.0004743886946207746	-0.008597366490293705	-0.001522739143698627	0.008717545468617168
0.002385325215493117	-0.01214723441367022	0.008987969621882214	0.01214461660279017
0.000488012234044962	-0.005884285561020918	0.009958443023686111	0.01338313585537493
-0.003024875252727341	-0.003556395411909817	0.007599560537461313	-0.005559718072560033
-0.004480594592508898	-0.009784755785222803	-0.001668808877128593	-0.01428055245178264
0.0001565668315476789	-0.005422699407167762	-0.0005071701163070787	-0.002623106252153409
0.002915118660951866	0.01254050307358044	-0.0006588846713310407	0.003505840116859054
0.0009481432640400541	0.006899930987669211	-0.004372924514045184	0.009720948259067779
0.0009306002961950376	0.000250443079151836	-0.005319233439666112	0.008351886643886745
-0.005492256380772794	-0.000534563351240342	-0.00668491567379532	0.00536833714055246
0.00072050448137218	0.006708532691786978	-0.004589329858410402	0.002537273942093488
-0.0006907847102439735	0.01246250050392716	-0.0009459478590249825	-0.002206146401607723
0.001778222886002999	0.006219946313802878	-0.006860392031661817	-0.004374738795281573
0.003965885500756865	0.0009207559234940523	-0.003743662650802892	-0.002057346633745311
0.003943069974390948	0.001721695576718075	-0.003867418851113037	-0.006785412880115375
0.002153171031926001	-0.002890958819590142	-0.003544457935264908	0.001856066600678244
0.004463113743798094	-0.006306411913134519	-0.001803813124610957	-0.002422894213340896
0.005610017737104653	-0.004435748378435914	0.003555324651478142	-0.002714497288872724
-0.0009042906470088091	-0.006224024928291903	0.01075256602461726	0.0078719243070829
0.0009121903366910371	-0.003913104077573889	0.006517273270479137	0.002016070621616952
-0.002454488626247849	-0.002458518611648025	0.003231880654729173	-0.003144609582844302
0.004004914046332387	-0.007278524166577678	0.002397522617289421	-0.001698566191445667
0.004262707368612522	-0.004611808954981235	0.006176295087342963	-0.001033335375519619
-0.0004180777821133977	-0.004470025501625171	-0.002367606170919801	-0.0001887703094949619
-0.0002798045655102597	-0.01208825010028591	-0.004712686390117931	0.002249377995283859
-0.007644301956622745	-0.01585644488956978	-0.001465393798742624	0.01011153685334044
-0.01052064397389426	-0.01425598927659242	0.007995261185103721	0.02779651993467407
0.0009938549954450759	0.008593919149232984	0.005273044243968119	0.01956562157729491
-0.003920079085838482	0.01063557038927916	-0.000920090145451934	0.001664248402668446
-0.001110830306940235	0.003252018322523601	-0.002527437712727704	0.001089094290374105
-0.002449068026952987	0.01533862296033177	-0.0053733386228485	0.008587441759334666
-0.00206888635104378	0.01106220185658837	-0.005061755390081663	0.009095229953947882
-6.672017545755613e-06	0.01428088188319664	-0.008046172543154099	-0.007718742254052609
0.001132253329216301	0.01285433540348577	-0.004737949639567582	-0.007453235318970808
0.0036155278210463	0.01584109900359549	0.004305299402065684	-0.004715941085927591
-0.005459686157905046	0.01495826405219562	-0.0004652182064457615	-0.006541140351659056
-0.001529814970626918	0.01311113731425145	0.002073969666231093	-0.007421635293320497
-0.001921974143953638	0.007030850258921472	0.007821132972811957	-0.007125366917309757
-0.00610527704653887	0.007212008594632972	0.006976868934082553	0.004786688571962436
-0.001639315399315288	0.01558190262284008	0.01031685589833784	0.01241347246420259
-0.003097905426974765	0.01044866895530791	0.001035980137107405	0.00463032455192832
0.001433951317936791	-0.002081600439367214	-0.00341687880587882	-0.0007177934487136975
0.006151893112385069	-0.009860808375021358	0.0005315170592909626	0.003869098558325442
0.007144829197140614	-0.009640974149731115	0.001785256147639365	-2.865885257655906e-05
0.002407989809437338	-0.0072038002864401	-0.003587719995610987	-0.002500137244957203
0.003251481467049152	-0.00554321627723234	-0.005012937623402432	0.01169501348756958
-0.002806597775473662	-0.01352412076568644	-0.0001624296965418808	-0.003992401614125483
0.006185179219333954	-0.0186861033220334	-0.0001066302146031741	-0.01913915446608236
0.001040950397392133	-0.01581953128643376	0.0001679694947960268	-0.01268934265691877
0.001230997309286943	-0.01003570910294651	-0.004608637631370807	-0.003367048405815672
-0.00240604418237979	0.0006303682952787732	0.0003037351077444165	-0.009082501926248919
-0.01607611767815585	0.0181662449553737	-0.0004434332042255982	-0.009629324908743504
-0.01100851095282908	0.02534113391715756	0.004139623329301273	-0.01097281942879168
-0.0005404589029077676	0.02640333456170824	0.008700110967295045	-0.0122745561166162
-0.006636358354727654	0.02178910525714294	0.001468199835333118	-0.007422385868168863
-0.003851847069532812	0.01972639264246171	-0.005530151707445297	-0.003478323441425285
-0.004913876829854765	0.008037236334981089	0.0002751972730077394	-0.001652030368314831
0.005022189242933232	-0.005010300975024911	0.001168941134828628	-0.0006706070674199465
0.005814185441360067	0.000106904382465533	0.002718812632286295	0.006067400174749176
0.00580978570348043	0.0002271469908203581	0.002410094302685292	0.007991668888355079
0.003410200576559873	-0.0112893765674024	-0.005627160900027451	-0.008527790893187292
0.007048938002758031	-0.020921085695023	-0.00411076657251979	-0.01225480017061957
0.00705548126401673	-0.01987739168914814	0.0005250725678573904	-0.007084379989532513
-0.006358892698243882	-0.008814154794750326	-0.007232416196907293	-0.00764753270166183
-0.00348888450839583	0.01050406219346665	-0.004811844194899391	-0.006211534211258469
-0.0009027827067249905	0.01196881837213906	-0.006866284810561592	-0.003899840085435232
0.0002074318072550633	0.003686953869210635	-0.008861879887372231	-0.003054067176728945
0.002228966655819145	-0.006872270849326114	-0.001807269192818576	0.0004246263711811134
-0.006615906954609543	-0.009989367165972506	-0.0004778322519172954	0.001500408122840205
-0.0002763588636827197	-0.005860062877738868	0.004887564486913147	0.00218674883316897
0.005529370444059936	-0.008316664256558505	0.01278751695253182	0.007256008128426406
0.003435561700998667	-0.008038207981163061	0.01190305358035902	0.0090904880708694
0.0008096364583724073	-0.01447758094515822	0.009230614395987909	0.008793887487308109
-0.002064270222896935	-0.0118374162897817	0.004898043622875686	0.007530374297550949
0.0007390783172789585	-0.01027328056535954	0.003107963569656367	0.005766143030993664
0.00261392247297773	-0.003134430403605345	0.00481112632047582	-0.003549003546347571
0.01052635466500617	0.0002617628882480381	0.0008689474594114795	-0.00133003149048933
0.009339800005203253	0.001844853190689891	-8.685660722402091e-05	0.0002947028992204491
0.003113657999185669	0.003088401794371285	-0.001170010871575967	-0.001537297826192292
0.00332238193702573	0.001288629538495668	-0.0003815966801324514	0.00231727193598805
0.001911462140730199	-0.002589160206152587	-0.001952929438056418	0.004978523067194166
0.006792835011398947	-0.005017905338600501	-0.004545851028426885	0.009222760182460423
0.007626178997458804	-0.008466621482395459	-0.002134277491441958	0.007138281311618468
0.006929126863334103	-0.003545911632704085	-0.001480105931978474	0.003203556370193649
0.007262737380552942	0.006526877237473585	-0.001321181566355643	0.002706249188935078
0.003452797955012853	0.004923627925382646	0.001404481497506359	-0.0006286137990631653
0.002012953360328052	0.005682157028301259	-0.007285671592786423	-0.007964038269838257
0.005057291209908192	0.01259646864609421	-0.004239052051373164	-3.981984690707081e-06
0.002067160222160141	0.008915280372990469	-0.005462908352030897	0.003523417054355433
0.003735856625368307	-0.002854375893450431	0.0006343146206744096	3.994199028784141e-05
-0.006528714017965241	-0.01512463665336378	0.002176456810859746	0.003424755060026182
-0.004898560208069506	-0.02002171633464958	-0.001571445851229287	-0.002247493312713178
-0.004098477791061924	-0.01923003818879849	-0.008921732295066152	-0.003203511547868036
0.0002246606805834233	-0.01861167569672624	-0.006940559285762257	-0.003475383322691492
0.0005698774107367286	-0.008999416576744862	-0.0002777401465997671	-0.0004945880395978455
-0.0006000250334405723	0.003890066115852404	0.006066911408413941	0.001553432133303483
-0.003369867028871222	0.02612232075481948	0.01010298001465877	0.001652821900451924
-0.007763159857545512	0.01120865177137401	0.006444318102707427	0.00178182656610893
-0.008419365605715799	4.894017394477275e-05	0.01080469260800211	0.02099351392162621
-0.007840525007161606	-0.0009678066859377934	0.004182912076461967	0.01284969845317776
-0.00499791931400421	0.006243574043265008	-0.0004540963817098135	-0.005655470656107797
-0.002948029251240609	0.0129443347812198	-0.0002741647430657883	-0.002235397452120784
0.002770061207382676	0.0208383412030224	-0.005880730487666151	-0.002909436988919638
0.003792699909185326	0.02645967337539592	-0.005164020540396635	-0.003313598292041961
0.009515114647966954	0.02381845451386334	-0.004402398624472754	0.001720111845874563
-0.007398905729032351	0.00930568450978281	-0.004114199781512408	0.001975488896159089
-0.0007402743662708305	0.005896725893758225	-0.003421750193173544	0.0008848512873052236
0.003416515743477768	0.003102212600710704	-0.001532354415164813	0.001091539931332306
0.003935109487301411	-0.00330687470894069	0.00133102291961273	-0.002277768413615757
0.005144457291760315	0.004932269526053685	-0.005578039211391597	0.001327754473735665
0.002579145962715562	-0.0008800366179504548	-0.0001958135874850303	0.002167576396241745
-0.004082127625962941	-0.009122054787210709	-0.0029513193331645	0.00188310071067984
-0.006572454647064475	-0.01360271520162836	0.006165859763540724	0.009716497706729813
-0.01017339335911395	-0.01762645988572053	0.008323919952686257	0.01553614467431227
-0.006820308130830848	-0.01475160597149562	0.003069751589508623	0.005004082241496622
-0.00821136035636319	-0.002590551632657225	0.004912151353675052	-0.001575524320763685
-0.006704340246023973	0.008358181262186633	-0.0009042578768915837	-0.01221958437431207
-0.005146031718330675	-0.003975462730641073	0.004669358098555509	-0.0184395031833825
-0.003434686747767347	-0.01341439639802119	0.002802854288954775	-0.0105122094566492
-0.007946083608274972	-0.01420519402905018	-0.0004187886430212814	-0.00179498495426057
-0.008108703685101054	-0.007810505563063072	-0.001880082781260988	-0.003266546607735836
-0.004561607520072832	-0.009288131211110511	-0.009299434806182422	-0.004335770978287007
-0.001409755898293405	-0.00679755902353379	-0.006884258054025413	-0.005287786907230161
7.903018140533328e-05	-0.002661148600701043	-0.003063582388571777	-0.001755804908626674
-0.00119905596175736	0.002791377165302967	0.001758863123354895	0.002494828706591933
0.0009265808533517242	0.007282936743615251	0.0005244514584955013	0.004103237425608509
0.001245535610748257	0.007855728397896155	0.001022457723880034	-0.003306929733081316
-0.003137499917609818	0.002119132347074565	0.001129124478371235	-0.003972424708406776
0.0002362412360554585	-0.006691118847082574	-0.003100754489830155	0.002457046189382071
-0.003428136732317367	-0.009905726695792439	-0.003544780623441261	-0.005111136487666027
0.002156806283671684	-0.01069720345139096	-0.006320218149116355	-0.003472670383607435
-0.001254464020254056	-0.006868929072171999	-0.004034053270748244	0.002623438914061215
0.005615766097279653	-0.002386968498393672	-0.00496327306460433	0.004514995558605853
0.0120553386755405	0.00424098774753463	0.0003857535532729937	-0.0007676427543945756
0.0007450793075197234	0.008013897998349492	-0.0002005723264352796	0.002161245889272642
-0.003009700613293353	0.03077169028691816	0.004542249136619127	0.007723449266224756
0.0035753538012035	0.02906771179309772	0.002998356008916059	0.007529242407112083
0.007635515584966932	0.009773159947706273	0.006941071111228739	0.007527381849624397
0.01090036470591394	0.01368871088951435	0.00191402659330451	0.002000641667294123
0.01090749943728077	0.006798770084564349	0.008398565200467709	-0.004012227981322856
0.003034394887002736	0.0007786063460845186	-0.001945759168150551	-0.01562457484670399
-0.002861373731537913	0.0002920157481324162	-0.003139932621919899	-0.009993585094458229
-0.007271843381866604	0.004399027560233883	0.0003834478863888897	0.003111325704363244
-0.003023988721263151	0.006520352574547522	-0.002145257784764288	0.003518030492577602
0.004982241249315503	0.001844161007034104	-0.001680253115377313	0.000942353950990396
0.008380221517984341	-0.002918612106869956	0.006055425194154517	0.002995985761246966
0.00652573648718643	-0.0009997683429192165	0.007317055049606087	0.001605690869437402
0.003816134624950011	-0.004470341833732887	0.004909505596117459	-0.005844305967002643
0.001210634748619066	-0.004885713037387839	0.003602977045838264	-0.00115636261331609
-0.0002820146252667331	-0.006758265113301369	0.001793766345742252	0.0001971300066292315
0.0006963222922278212	-0.004214202436208557	0.004150666286840604	-0.009644939785955356
0.005732015702016995	0.004738446661296349	0.006897814290273112	1.897531273516634e-05
-0.002717200102623359	0.001962406299412682	0.002566434721078592	0.01311442844467049
-0.01440436251810516	-0.01127072452458292	0.00157796941355216	0.01109521250924185
-0.009057577774915331	-0.01033930451704088	-0.003034166447247906	0.006092226565687496
-0.003295850442371662	-0.007588127518130859	0.001926139558227133	0.002814847002666603
0.001300961926442411	-0.005258395487674834	-0.003166091226258932	-0.002175111232182159
0.0009388672623415596	-0.005051294389649138	-0.004040284977885451	-0.007561431685089197
-0.003435804797488956	-0.009572468198711251	-0.004874542216709636	-0.001172275586514509
-0.001404471171022084	-0.005287813165893737	-0.005269594625933161	-0.0001134601003718479
-0.002820549252816867	-0.005158100950433677	-0.002078544528755737	0.006277083606802705
-0.009353767548432701	-0.009140006906812534	0.0003682679781876118	0.005000223034773008
-0.01251913300865209	-0.008324200712507992	-0.002383146449624132	0.0007521074395489403
-0.01105596003208398	-0.004469762682451132	-0.001710296039404305	-0.002852073258651631
-0.004862948114278584	-0.003907608793582046	-0.0001109777442991752	-0.007896719723105754
0.0009789016419018003	-0.004586207835859427	-0.001967166416976339	-0.002809123751669493
0.0009851555268256403	-0.002088428051529631	-0.0004827684525259251	-0.006371615846695438
0.007369643516091617	0.004981530855427645	-0.003078594385393951	-0.005702662347127574
0.004868366989017284	0.002003461045334409	-0.001119939157917357	-0.003660686629923226
0.01124866972997973	0.005251588530361373	-0.005013328651853326	0.00477495797610856
0.01233249063609098	0.008725249806783212	0.001924668295397096	0.005629627606284603
0.01515731117668447	0.01104250918014916	-0.004314487400270928	0.002673648234076749
0.00948394450079112	0.01190333019646515	-0.005195581407699424	0.005301458331637369
0.0119568982864972	0.01335114953065526	-0.005138700379197285	0.000707165613921377
0.009010113157155534	0.013712617294436	-0.002121895110273872	-0.003769940980019241
0.003515693401320206	0.005380644433744031	-0.0007516176383147469	-0.003281621279081674
0.004185879984025638	0.00616443811108009	0.004845809768441076	-0.01315746661706573
0.000290824076026677	0.0009446794612770859	0.004574108881178666	-0.01228592531787713
0.0004228200936656931	-0.002907266996305731	0.002212935411975622	-0.008376672108446127
-0.003618909126206254	-0.006334638884778484	-0.002973063731016272	-0.00541008916394344
-0.004996924910166038	-0.01194119380507412	-0.0001125494320671495	-0.003156241478228689
-0.00280626097502743	-0.01109633445718893	0.000289053726185817	-0.001215202996001663
-0.002340797249726128	-0.01178430969352713	0.002903361764988445	0.000359299120115778
-0.002863229038263509	-0.01262587203939055	-0.0001137400855829516	0.001344308028522537
-0.006727726971947216	-0.01016940367331505	-0.003668813498899435	-0.001722274426982714
-0.009205929130300066	-0.009987624645338568	0.003386326315630199	0.001113849015515699
-0.004511623324253985	-0.008502424682106845	0.002597896859654892	0.004787490929926073
-0.004104509800699829	-0.008238110780158906	0.004626623104109483	0.00512304304946796
-0.006729569580853778	-0.008342629214108348	-0.001439257586282455	-0.00136542086128559
-0.01390791320431608	-0.008753759676584543	-0.007305675530921004	-0.0008075998053236645
-0.01328086781658131	-0.005343247500814615	-0.004219794251694875	-0.006233620872623036
-0.007826360281972587	0.008636228196985285	0.006935885509054993	0.0007251201143393948
-0.002849427143969924	0.0321457479942826	0.006713596052911174	0.005861990104401633
-0.0002900790482571549	0.02312901039333114	-0.002031004327372544	0.003805965467123594
0.006582351903328247	0.009372815902130325	0.0001913685205836827	0.004873528175584545
0.008093057034480374	0.001482524079591527	0.0029662322714145	-0.002284851022684632
0.00420435551496715	0.0002772013490618813	0.001389700233697525	-0.003823084885818017
0.007306020534747141	0.005854483981003047	0.002647008155705918	-0.004001218425141062
0.008103957627393342	0.01522250003029536	-0.002933439005841002	0.00235419764387716
0.007077237532074779	0.0002738910734921769	-0.006627806230781143	0.000924428067664453
0.006589318108060826	-0.008896345222428291	-0.009988315671977678	0.001148777883060299
0.003672990686757532	-0.008470650230687857	-0.00986398870944754	0.007812152818460291
0.01324059801160802	-0.003466344257842129	0.0001977796113237826	0.02536070888367632
0.009737498139218578	-0.002988357878283342	0.00315699956998772	0.01081617906866118
-0.000454336080179528	-0.004578574863567764	0.0008364515246227834	-0.001480624968068301
-0.008319474511290838	0.01046915425023623	0.0001114842888810901	-0.001302193770589075
-0.008911255606326074	0.0157474640062271	-0.0001478052004919727	0.003758298618537738
0.003362376622911563	0.009429003981797746	0.0009796106789558708	0.003342707299911776
0.006254524094291996	0.01128428793270408	0.005629532479935528	0.005378622730110423
0.001261695346724676	0.004634664772451169	0.010942956213836	0.005249140985541382
-0.003839796050050428	0.005899845184928353	0.004823752939404662	0.001314227338969606
-0.004566240845704732	0.0148741952952861	0.002795339146132542	0.003289552245997493
-0.002567567376109764	0.01043492846429193	0.003183361054329612	-0.007411636420063687
-0.002606691758851696	-0.001056205408524921	0.003889925472907895	-0.008121252113533936
0.002248500238900406	-0.004867588818068445	0.0006135231552033274	0.007580130395265115
-0.002205308441182208	-0.008191244578354941	-0.008845476513098737	0.009140931476102383
0.001205978181262944	-0.006250205282823806	-0.004485567775550511	0.00267770136343519
0.001082526121921843	-0.002808912757005678	0.001046803881098048	0.002610111289974867
-0.001610250926329074	-0.003608454802552036	0.001361365635769985	-0.0006413812723633449
-0.0002340498694794098	-0.01054967767473912	0.005842063158557698	-0.01251139082319283
-0.005482465744350028	-0.0116659295152203	0.007727920044494675	-0.01493507060825705
-0.009064600276328298	-0.009621302623213293	-0.005400813043265887	-0.0165531702221801
-0.007968761121118186	0.01101610409590749	-0.01004304280765649	-0.01480669743088811
0.002696594106645971	0.01768281214382859	-0.00236678020732021	-0.01461261165002164
0.005706912934466684	0.00431944367056567	-0.001131342570260363	-0.002940003642587002
0.006176404898363871	0.002102510960621671	0.004521534904210736	0.0028972042197232
0.005234822731522332	-0.002393580509169744	0.007273378178076006	0.01450634867553625
0.005038294021611438	-0.002977731212997386	0.00503466269386356	0.006714800343854081
0.004659072026336688	-0.002328822888290065	0.0005634558991137689	0.004353661859760916
0.001554940899022067	0.004611172236265402	0.00169278240544051	0.003719689731460693
0.005157719071191069	0.0006453053835076942	0.0007401314743377483	0.002522520590169585
0.006194679196393889	-0.0002125804724657654	-0.0007411869123127421	-0.002364406307028531
0.0008233314724514918	0.002125473977292078	-0.002204451273128212	-0.0005653094898258995
0.00372124482828129	-0.002421724042050744	-0.005783559823976545	0.003605679693856178
0.002342479937555068	-0.00906595088252192	-0.01050217151647755	0.0007230065153602404
0.007381248976865517	-0.007174856307228874	-0.009450504469856093	-0.006698882381541394
0.002668702059159508	-0.01099428492211055	-0.008604369804369284	-0.00211883061111387
-0.002977437598347961	-0.008141754695790785	-0.004511138606815708	0.007388937264223323
-0.009270379886645534	-0.01472168139644596	0.0009283655541614442	0.007394033070953239
-0.007226599591530497	-0.008400062560776144	0.004797454435058759	0.01411971776721135
-0.01111400881664188	-0.0004512604740763594	-0.00246065867055068	0.0191155589728813
-0.007137611514584336	0.002923645680984776	0.003210980058051649	0.003017731787940297
-0.002964123279164455	0.006092311083892552	0.007992035455106565	0.001022291771797429
-0.00717842629222201	0.004104254614411278	0.005944697923374584	0.001378678551204783
-0.00596503661227686	0.001502447519458587	0.0004025336754902869	-0.007618643269604907
-0.005734072970070457	0.01342037393394915	0.002082098162388298	-0.006193330893871852
-0.006798869565172682	0.002001428276867926	0.006630691494428633	-0.002005075347326077
-0.007474775326540498	-0.003492717318315047	0.008759293576264048	0.003088948501350073
-0.01065261934868448	-0.004555452185359749	0.005200910416815977	-0.006392348541831327
-0.008932280736232754	-0.0168000532470829	0.002142512253545084	-0.008120764635189869
-0.004501605898442839	-0.0205840498420808	0.005095094229269273	-0.01288149143187914
-0.007195397903893453	-0.02028746602247035	0.005622585872285468	-0.006245537048307549
-0.005329504557635052	-0.01625173095397034	0.005705278877400827	-0.006297214028546777
-0.00276439813478158	-0.02134583912977909	0.001023551873742284	-0.007961939461735129
0.002401667356732085	-0.0155316341313842	0.004127434973566904	-0.007555103585628968
0.00101332837042127	-0.01315025075418684	0.006022420418595856	0.01674512818063603
0.002986618541379385	-0.00824061714915347	0.0007744328497192954	0.006638558870005098
0.002026254466031573	-0.004447204929592311	-0.003927227073326901	-0.004414442256185557
0.003033587716406786	-0.0001373950217152762	-0.004967600902105711	-0.005252325533020541
0.004183691565135431	0.009803353585918408	-0.005121395870762382	-0.002853716554534786
0.004379761065003642	0.03483786405419189	-0.00990561317813108	-0.002462158608790797
0.009283892489591862	0.04364611112627965	-0.009157763814560111	-0.002539179773369792
0.002604741647287771	0.02508877789558278	-0.01024019733964903	0.003108805769142789
0.006413826750584197	0.01308547595808247	-0.003432627245865345	0.002435700734310729
-0.0001360452562179818	0.009243520706989887	-0.004159719378040641	-0.007710555423425792
0.00173692980773276	-0.001436889474557835	0.001857358069298265	-0.003532315896500699
0.002764013691990591	0.003544229409151691	-0.002757328799390674	-0.003243203025097663
0.004464902904541656	0.0007901725311224093	0.003626851677246356	-0.0004961955752270083
0.00740217827941175	0.001659276155771296	-0.001553696814944012	0.009560551232285271
0.00965061897567787	0.004590422725468427	-0.003328353539941206	0.00151892764225423
0.00824837464337249	0.008620233029415583	-0.004639936481329415	-0.007154760881192952
0.006893379722195376	0.005672080652585616	-0.00121705491409416	-0.00562990381034885
0.006162052629763655	0.002453048037980661	0.006119929165870672	-0.0006586528049411683
0.01061955668625829	-0.002134853743752338	0.006910849782743931	0.008162497149365315
0.00725246978259927	-0.004880086140935751	0.003474145200639644	0.005656750499687928
0.006747302315463659	-0.007718796675334046	0.003367293219594576	0.004482249428943799
0.004788975554445418	-0.002833660041417201	-0.001734895962586562	-0.0003547338663176536
-0.0002556958862374998	-0.0008206599599184158	-0.002432725878380618	-0.005668496971287939
-0.005389699809026108	0.001000548047812443	-0.003968990578475221	-0.007870240640502207
-0.008112465697147289	-0.001639609367170164	-0.003045360301425864	-0.002099928915314617
-0.01428628069798022	-0.003984692125643579	0.0009920462377336207	-0.007168177187944662
-0.01555428260293036	-0.0008153193762763096	-0.003180322013793364	-0.006736473066292998
-0.002915622061644701	-0.0009380631382435115	-9.657472983660731e-05	-0.002295832851880714
-0.01600347304927864	-0.004268333545415707	0.001948392360232255	0.002505215052722359
-0.01061109302723599	-0.004870443207304546	0.007853265422945989	0.001174980410132828
-0.007350908831488419	-0.006703708495231069	0.0006683879554689332	0.001837591376142552
-0.001245394270549556	-0.004978389729797222	0.0004352280637706439	0.005265189198761306
0.005617275955884514	-0.002490933511591029	0.0004161203387500468	0.001017154051905127
0.002965139099628368	0.0004677737268049224	-0.002312040279080677	0.002698388839288387
0.005967654345809032	0.003467005966846201	-0.003226302712114033	0.007899011809269439
0.002714404713036971	0.0055633019010385	-0.00102041832043239	0.01779872412630676
0.003601514794106951	0.01220602452281234	-0.007924440910734087	0.008296429119035453
0.005531123155019355	0.02514518795539646	-0.009988524715585239	0.00733547508264173
0.006082660204113082	0.01759698331642268	-0.006804010162084421	-0.001745717394560989
0.005253990556043753	0.0140771605120624	-0.006848058664828582	-0.003018673060554418
0.0009840321474801884	0.005048053675359218	0.00134467441220438	0.002530076696247674
0.002473527769287802	0.005085646741882036	0.00218816865050781	0.001453903408466323
-0.00337216302238748	0.00299374297754388	0.007688177635191895	-0.001186979412687964
0.003835971036311386	0.007579012088860197	0.006048408435636518	-0.0002632887336960108
0.009299767413949047	0.01168683578546815	-0.001246116485055965	0.001375762723766046
0.007456388049245568	0.006159468817198125	0.001259659010372967	0.00689399470670046
0.002467201552987508	-0.001384444146474952	-0.002787787233248289	0.004144461789585527
-0.002855297193287163	0.00236013489683868	-0.004884003418827612	0.003894958807801172
-0.0004292111577387315	0.003945683497532299	-0.002528249418232026	0.002078002087948403
0.002696801306505252	-0.005569487345677133	0.00241189935487942	0.001917098805407784
0.001436419571868596	-0.008354408554305451	0.004970629793170453	0.0007927324371455559
-0.003869371969359553	-0.01006496420130293	0.001933695612897964	0.001948646935262411
-0.005549859794221734	-0.01187688382566953	-0.0003825877217266508	0.003171124240344649
2.203409740186748e-05	-0.0003233080318348384	-0.001440530060485297	0.006978901769651689
0.0007045415933567051	0.01265712828954926	0.01059396449450111	0.004823885392212551
-0.001405869909481955	-0.0009025046660764923	0.01101387594318573	0.02664664860696171
0.004447239637007054	-0.007219301653089733	0.006257020190660796	0.007080452960873867
0.001987446527450153	-0.01224892248278206	-0.002102746847363227	-0.01861270770645594
-0.00420625917259887	-0.01221083072582553	-0.00158685825046855	-0.02279485317756894
-0.008274254847594618	-0.009922232432471841	-0.004986912602752544	-0.0141268632731961
-0.00652095949626823	-0.01372944575346831	0.001689261792513033	-0.007675136347588465
-0.002415578015707279	-0.01095070454582988	0.00244203483761747	0.0001707153620059947
0.0002728497384112334	-0.01072650932511204	0.001101182335241327	-0.001381981811127771
-0.005997527790661398	-0.01553828958960633	-0.004884740946463496	-0.001396373251524222
-0.009449381945537514	-0.01791195774051786	-0.0004884326223788969	0.001474098056515585
-0.007117490374322442	-0.01670260573505146	-0.0009465889498667037	0.004576146836856481
0.008142700750230342	-0.01102403757704151	-0.001285005121101258	0.004713124929030294
0.009776673181791715	-0.0151215989612434	0.001268223732596744	-0.001899116196685829
0.006546477006648553	-0.01650842253402185	0.001156435170610978	0.003005653494177008
0.0105036134573187	-0.01608499790078184	0.003355427435283957	-0.01445090208738066
0.006551618577012122	-0.008100242312681695	0.0006878986357500986	-0.01810012447021415
0.005729652997244578	-0.008658892380114131	-0.001090401593908842	-0.0144715396236145
0.004327846258255223	-0.0004320105748159203	-0.005204005065006324	-0.00783749029278127
0.001468619722160732	0.005060796148703786	-0.00824654642663254	0.001577206393595249
-0.003995887151756592	0.01720274144608552	-0.001612203690208652	-0.0003462326086565222
-0.01080374235458911	0.002667342220948689	0.002169897190553443	0.001228202384943413
-0.008586003626950962	-0.001832066821656112	0.001291917577428618	-0.002970880415268616
-0.0131731596743418	-0.003049288108249047	3.673123339562425e-05	-0.001791558193271058
-0.01246777224306875	-0.005906214447213513	0.00417007863013045	-8.579489764747257e-05
-0.01030746304479884	-0.001818564413168424	-0.0008792837165068972	0.001220023760846368
-0.008949072330348104	0.004784715017126955	-0.001150734120111054	0.0001581512570921362
-0.008374282675341606	0.01092027062355384	0.002095565953100757	0.00475773889941529
-0.003574022179854476	0.01081437227807709	0.003126146540974905	0.000667329673251518
-0.002598225034067443	0.0168167677824675	0.001773178932909992	0.003774219682826436
0.004713914322149564	0.01243787124148862	0.0007782307018598367	0.003736666318835027
0.0002273672464815413	0.007484362440596762	0.005889844481318144	0.0003023419513713384
-0.0006540509317683882	0.009890110907228914	0.003559055761557912	-0.001984543086547144
0.008495923296873003	0.01089156276915893	-0.000534869318523979	-0.004661722032688345
0.003094308445216204	0.008373974762755709	-0.003985880131211953	-0.003187802146916749
-0.004184403061289711	0.004803495258098218	-0.003942654588779032	-0.001878908905229503
-0.007058891296733905	0.008913734141484688	-0.00504766532886517	0.007749913279244119
-0.003670795367389396	0.01113740132591828	-0.002527868736126804	0.006146933696313543
0.0007721857696257327	0.009150186721218711	-0.001190656360518967	0.00605107692284428
0.004223736415052444	0.01373884935503532	0.002499872186767328	0.007946821622229629
0.002458563782186892	0.002840558064287564	0.005869705970209184	0.006194813037597335
-0.0007873168363618155	-8.588931034760787e-05	0.0003469432117586658	0.00276953392272281
-0.000848951161487579	-0.001345436933422287	0.0019681647315491	-0.001684652639510422
0.00618363855705528	-0.0007051949784304351	0.001963257958959659	-0.0009502630013508706
0.008032215146057066	0.002337765644657915	0.002782868029239487	-0.01013045420301243
0.00893046581571392	0.0003275571045312472	-0.006882935490509478	-0.022309483583326
0.007610786555087947	0.005798650066395855	-0.006825100711172938	-0.01264254477169439
0.0107404337285736	0.01664628777104238	0.0009138259170790126	-0.007068673794967038
0.007101614347558124	0.01004098959684211	0.002410951246525496	0.003563735530610548
0.007999213319481988	0.004443805921449303	0.0039410305321238	0.01257001146600015
0.004440580555863534	0.002938445432807451	0.005600754863925289	0.007387915149161021
0.006380864062952922	-0.003797343194744464	0.0001638407531195845	-0.003125248621550508
-0.005714559083266841	-0.007598741021753118	-0.002472263208488021	0.002637466381208818
-0.001944839003118374	-0.006487341684766286	0.002744741459565212	0.007250127547122846
-0.0008924392507008087	-0.01311694983624864	0.002725511259021203	0.00902024415039644
-0.006422729458178129	-0.01742561410129125	-0.002655118755813986	0.0008892574757558511
-0.002687943566843281	-0.01986221254924134	-0.007470180088126284	-0.006721427040063201
0.001827105057414081	-0.006167627870441453	-0.01277183802625551	-0.006520241584302033
-0.0003313296141215332	-0.0007382139609862725	-0.005861007343114012	-0.008649337386857768
0.002572607613425107	0.004706951838351733	0.001171240896845383	-0.004321400559593835
0.003495944286313487	0.002665620360033048	-0.002168662035688148	-0.007325308193427533
0.000520459035558205	0.00177813119318184	0.004149601348848694	-0.009640948944753714
0.0003346332598647378	0.004208661302055235	0.008957396693926138	0.009366726360085755
-0.004837760480711957	0.004339864895518002	0.01567334217219436	0.02915332400860888
-0.004616650947205734	0.004121398812440319	0.004101261809001688	0.02142421202659011
-0.01159964112558081	0.003248812084136123	0.0003406544824767719	0.01269117427553171
-0.002423554703293064	0.005906730480136372	0.002400446837161912	0.009300482732484036
0.0004116287818594667	0.007466866083329395	0.001024992880862596	0.004988668863940115
0.009421454241056516	0.005705236149818477	0.003805917693419337	0.004879555051636039
0.01105851806768248	0.005035607101454519	-0.0001109073161850354	-0.003206156877581745
0.009951373665409626	0.004889801048560456	-0.004983400941930491	-0.002294550080474091
0.006337320097293712	0.0004373472539089732	0.003892059407352344	-0.0006612138620598307
0.006000683059420257	0.0002739923041376858	0.002806559601260525	0.002564122674930969
0.007757771050444989	0.002754420814416251	-0.0003335131750358223	0.005409135658456035
0.004230533788156437	0.01149581270559965	-0.002708803079447138	-0.0001617957108923851
-0.002985826147971394	0.004751581275572314	-0.002206713114120084	0.0008718800613497152
-0.000353358169883246	-0.007692466965713041	-0.004864742917675877	0.003036073459548046
-0.003855176778641258	-0.01409648526111109	-0.005622082348904307	0.002112412955165099
0.001189949341639188	-0.01782087547793734	0.003853858801378375	-0.0001633755064651599
-0.0002766252184214774	0.003114263367194844	0.0003251021671277478	0.003527857526287461
-0.004955664176324173	0.008354255979729348	0.002849811960445206	-0.01263534163175971
-0.004596855402082953	-0.01164192733559783	0.001363441222835359	-0.01635914823003379
-0.0008128771283304388	-0.023607461819775	-0.007245803832506753	-0.01848561768558453
-0.00301711235918049	-0.02551113264827835	-0.0101928200258588	-0.006629051483840329
-0.00277297002073954	-0.00919601556478406	-0.008989434545396798	-0.00834665679512147
0.001397547598658722	0.01589440550984478	-0.005094669944321736	-0.01364540910530111
-0.007786154759257315	0.01365086427944689	-0.006335742936067693	-0.01209413651657758
-0.007881719943005275	0.01353545922478954	-0.003202763831401628	-0.005732165017817179
-0.007183189954334985	0.0126959762143881	-0.004426409966048049	-0.001379608042642476
-0.007289948202757705	0.004864631492697929	0.001957568373833623	-0.0004810874500166855
-0.01045207443748153	-0.001754369240368235	-0.001126319053370212	-0.001418822886117599
-0.01277051761848101	-0.004515892908629653	-0.003793104003265994	0.0007096273538561113
-0.009252071142437993	0.001477014093693359	-0.002352041892404113	0.001337297657295831
-0.007513171221340045	0.001778060097119356	-0.007117140716368152	-0.002778691891650044
-0.006572822671961145	0.002939058285188707	-0.001355339996476963	0.001696932209634978
-0.01047001938844096	-0.01108368332895476	-0.0005808294302982839	0.002072346732272462
-0.006867967395009786	-0.01543838794188114	0.005747150570239222	0.003201688542624755
-0.002196827074756227	-0.01357368849433108	0.004692264596403935	0.006134983271175125
0.004966616302604161	-0.01169675005950884	0.001978921435531336	0.01058786829138544
0.005305017955769563	-0.01248989100673301	0.006706087085297526	0.004822075083698133
0.002235937388488678	-0.01080198454539942	0.002928897056793453	0.004780217540841884
0.00893459687533326	-0.004264331169269051	0.006948360191736378	0.0007879036108099072
0.001849778053927887	0.007964686025960526	0.002591671884306014	-0.000348855983874118
0.01179189971744823	0.02131701249035972	0.0008739981142150688	-0.005206856707359251
0.01308662373787234	0.004702639632763007	0.002849716780555742	-0.005097464332452485
0.01126937465660973	-0.001135725500250857	0.004396222804881235	0.0003220039513629864
0.01139245392375628	-0.005259054660285793	0.003188127622941763	0.002999727554438083
0.01130836502577163	-0.005118399978714277	0.004110710742050874	-0.001577119376158361
0.007156015922886858	-0.0049789741280872	0.002982334976265744	-0.0004289285145190913
0.0005468402303321159	-0.004511729144621973	0.003049665834047739	0.007675614709272803
-0.001387671993677559	-0.006142336512722641	0.003862654711212679	0.01139443289470162
-0.008066226202817543	-0.006972184509529543	0.006528802271097286	0.009710970088975555
-0.02359590000048741	-0.006304916584816434	0.004447025262669153	0.00900886931669871
-0.01272163863717554	-0.004770114046606985	0.0007711485263025165	0.00884182179177416
-0.007448113482014665	-0.003874984864988843	-0.004765903834931459	0.005939463202499082
-0.003416942757633557	0.001807897742806638	0.0001413531989171073	0.006062237446193198
0.002930753337080307	-0.003387492962787441	0.003618947333528376	0.004749430349387455
0.004831079753954915	-0.001343748442356222	-0.0022002310828675	0.001101248150423802
0.001751346540406686	-0.004527080982804348	-0.003568101528106073	-0.01407220564121894
0.006874804398899106	-0.00481819028758448	-0.01048058290438766	-0.01332005336330909
0.007651525026266493	0.006386656885408116	-0.007914440211500281	-0.009834672088128259
0.007208464675807629	0.01504484177786568	-0.00128000722228259	-0.007585644924464264
0.004449939198395166	0.004925386434488387	-0.0003520815485986448	-0.007740456874577622
0.002373068664412022	0.0007803460397168619	-0.001979026239779374	-0.0007711016963121758
0.00729242405128238	0.007920661200994845	-0.004332142940375386	0.001708097141124504
0.008211610708619359	0.008646654144024872	-0.003690997731612919	-0.005164605035053502
0.01155015025222149	0.007287538483170466	-0.005598924566604943	-0.003249882709458308
0.006708620733563563	0.00986466722434114	-0.0002724850805056195	0.003138869272644151
-0.003330679271233241	0.009938989903934386	0.002817522861383087	0.02743438165800966
-0.006474182167466155	0.007534762730313565	0.009236388766790062	0.009476373374318543
-0.00653134932090747	0.003058939163768191	0.003692312054562659	0.002293150776401413
-0.000451122088527355	-0.005268197153369448	0.0005571265627270024	0.001001448023455188
-0.002296162605443958	-0.002311309834349603	-0.004146833197175792	-0.01231880997490474
-0.00519065010051733	0.001109540338936953	-0.004226609599739025	-0.01796547008926258
-0.005214461542420064	-0.0007096894142090229	-0.004572830386099958	-0.002491959191151757
-0.008976357944667097	-0.007752425611305117	-0.00552458196967989	0.002753617895386985
-0.007045301113090874	-0.009342090110363334	-0.008440859477340839	-0.007973743890137755
-0.001244997708694886	-0.00730697094603858	-0.005715894960227624	-0.008571717821067993
0.002673420849778837	0.00274142423838419	0.005356497359711334	0.01519926431807408
-0.001097048832087428	0.0006675023943609436	0.01986464802637016	0.01623859162309732
-0.002568166919484264	-0.002725245367713146	0.01657897433319185	0.00538951299537838
-0.004180285321597338	-0.002861191827445036	0.006993222939820071	0.005180430702738313
-0.004925684891842987	-0.0006610070360767913	0.001855010773268416	-0.01184573196636728
0.001428573427737188	0.00207487093389755	-0.003991001284616604	-0.01906607085083019
0.004541394462428806	-3.717343213109723e-05	0.002239026439832559	-0.007154490551728602
-0.002627000164306972	0.0005968460338782729	0.001767654646942533	-0.002368857997963666
-0.01122061858781592	0.0004945809433145959	-0.001303734660673132	0.001630907651046706
0.0001875146938113344	0.006419735077100251	-6.633789074968058e-05	-0.002750941884651002
0.003107025619873223	0.01504681558195016	0.0009241086639539698	0.0008754510370897348
0.003656964579477521	0.01478859982194472	0.002198973856538475	-0.0006097717889482832
-0.001593909433719269	0.02163864216259978	-0.001284159056377337	-0.0008918871051340486
-0.001560621727878826	0.02337480057507775	0.002303590937635178	0.0008982706987936224
0.004893042124093295	0.02415572722520383	-0.004944516084743755	-0.006115052516944641
0.006582745157873058	0.01696391526980846	-0.004956275020913506	-0.008976493094950319
0.008347609273385416	0.01372454108808795	-0.002074289232599054	-0.004803271215344912
0.01516344920807295	0.01043023480931188	-0.004707997954477267	-0.003497592635377931
0.01103467277714106	0.004929625062360572	-0.007646541834947898	-0.002157134900322722
0.00834177005516633	-0.003800193426852019	-0.002884324812483354	-0.001148624779652438
0.005040509861103688	-0.0104854968170667	-0.00529540076877655	0.007866412093609257
0.002746879280258166	-0.02318196373503711	-0.0052593937684694	0.008635066737858257
0.0009790643097136618	-0.02841959153708999	0.0001149582790057579	-0.001476269985042108
-0.0007563004894982249	-0.02274674689476738	0.002286950349443229	-0.005202356504949734
-0.003966097651461871	-0.02513098517089181	0.003316174967384114	-0.0007185895886146619
-0.00284023765046083	-0.02177145011329462	0.009023553487731437	-0.001356341751842186
-0.006128902909326042	-0.009377305308255418	0.0083150862560766	0.001856205954059601
-0.004098003930824585	-0.007763329175102411	0.009143136000206999	0.002218744143054799
-0.002076110832969587	-4.315539292485822e-05	0.009364723457897897	0.002407648178553321
-0.003270503744903733	-0.006901004752527283	0.005568899989122869	0.004624500877048648
-0.005193795935462166	-0.009755884632135562	0.0005973692372951306	0.005277575677907456
-0.00601999543306531	-0.01500503730687302	-0.004982579557901795	0.003089049290011956
-0.001771083597134862	-0.009383972807700145	-0.003441100613126652	0.003539273267150227
-0.001997280635981818	0.002265932475506902	-0.00675359341264259	0.002158822092016918
0.0001591147799996027	0.02052680429900992	-0.01131916212980654	0.004641406747983566
0.0002141228110525603	0.03892868833558116	-0.006704610527587695	0.004378730861522466
0.006104798992814819	0.02655781568225231	-0.00390809462300111	0.002968831828229544
-0.002012148407673167	0.02824092639188557	0.001254773509331928	0.007441002989191656
-0.009566167212053479	0.01449847640017448	0.003702510068605976	0.007226797077912798
-0.004293261002879872	0.002907447621136132	-0.002189231125661917	0.002758604852819817
-0.006594249500921084	-0.006467971088401566	0.0001095834527325316	-0.002147896026670614
-0.004922122454902612	-0.002473196611601453	-0.0004638254998046582	0.002718253696936753
0.0009787221842323262	0.002911641948097817	-0.0007809879096207742	0.006885153861181656
-0.0002884165915099229	-0.005172476302075646	0.005998581507821095	-0.004056082932235979
0.001057215624845915	-0.003647012707197756	-0.001111643516297365	0.0002450542102180462
-0.001477807188370781	-0.001992861262122388	0.00475848530475933	-0.006724016658531568
0.001340324394182474	0.005009293074409989	0.00104582953253437	-0.009726844535729365
0.004753192693685756	-0.003417990292001977	-0.006331896471531604	-0.00551916010337242
0.002256190798324978	-0.006569202303691885	-0.01585549635533412	-0.002827620147684588
-0.00032646787893917	-0.01451310172846126	-0.01300719326163785	0.01615285924435115
-0.0005894254157605513	-0.01504943803314103	-0.01458175892349834	0.01265816826787015
-0.001117252570920638	-0.01209325252972565	-0.006122942203538876	-0.001321733086536894
0.005109568357620692	-0.01107964581467288	0.006206411355645254	0.007019581886486721
0.0003460826026360245	-0.006101968559581816	0.01096781742674117	0.01336021346018766
0.005982680283553398	-0.004770606533456873	0.007463926769776728	0.008788626584149561
0.002580660618381728	0.0003543222884692004	0.002069966079329781	0.004348132858405339
0.00398902824935219	0.004039484454546552	0.001416048887502644	0.01021389970974436
0.004162603701347998	0.001312628508372761	0.003052669373950104	-0.008224674301644364
0.002767137858055904	-0.001760799373810209	0.001165342869560995	-0.01773702368820709
-0.005818469218459619	-0.001488680444294783	-0.002913629457880055	-0.02019353478643553
-0.02201250723195387	-0.001489136307353606	-0.002815438553425854	-0.02531458622300235
-0.01330893687538129	-0.0002511381811598543	-0.003991313112515727	-0.01865133628598342
-0.007721953588925924	-0.002786895271853713	-0.0004249393334153664	-0.0142677059164706
0.003105188095474413	0.00365056084536995	0.006583592410143383	0.00261012223337137
0.003186026366333629	-0.002849631772181915	0.01454997730902453	0.009707459192754609
