0.02839262589884248	0.01825714848632556	-0.0778144335629003	-0.004763499310965734
-0.003124152376627822	0.02343992191018995	-0.03417085236729729	0.03014960823845662
-0.05695189670315831	0.01785401859921221	-0.04297490558287934	0.05745981453910621
-0.004025696299711006	0.02279012702919275	0.02905323056172209	0.02227563154946885
0.04977150686968347	0.0286803941984295	0.1132897308320049	-0.01986092436418066
0.1112681022346121	0.02332679442807917	0.08484884700210658	-0.01086330045666537
0.09489830882677185	0.01679253260096227	0.02714253488088214	-0.05137433486003588
0.05487823871901421	-0.008508656840558293	-0.06712212803912648	-0.01864882460297146
0.04544229413438398	-7.311801712215986e-05	-0.08628457700820556	-0.02523349054710327
0.03709122845831746	-0.03910999799419537	-0.1069231312724247	0.09703470604750937
0.02060306347664081	-0.04823805228252765	0.1070141483606388	0.2801663668925978
-0.0438561187491907	-0.0515054941467052	0.2138513045927931	0.2473281135220319
-0.07852658851604218	-0.0478130434563417	0.1761201736083338	0.04642606657330142
-0.06287770594162455	-0.04484014551796153	0.03870198554831879	-0.1764139390624156
-0.01088902691164728	-0.04239235396778863	-0.00902882397212439	-0.2236321335835839
0.03244024272674297	-0.02533486774576857	0.01578617213317045	-0.1337666303878074
0.02969435779903931	-0.01619558144531635	-0.02337414191979788	-0.1769282801537914
0.02361774773496782	-0.07680280556741972	-0.0251314703900238	-0.1375997321208991
0.01016867322769064	-0.09017470997420439	-0.03935871143937254	-0.1029729132461349
0.00921150311835979	-0.03787582290428196	-0.01550680539675068	-0.05616829382776394
0.007252549881931005	-0.03062015380748147	-0.02168076300308979	-0.04610794052646597
0.02328878148032512	-0.002748500128724402	-0.03661710768581242	-0.02241771813082783
0.01422954654555222	-0.0007465475166964801	-0.087899102853313	0.03013867027790028
0.01829937822502092	0.01173750547517649	-0.1345220483049185	-0.0002412101270406028
0.02096610729609355	-0.00428676082892047	-0.1179625854050684	-0.01152643377386078
0.009358343447772621	0.000675807009568065	-0.08319153293790334	-0.01596960782076982
0.01616970360989941	0.02805583022483418	-0.05146671148470901	0.02393814887389427
-0.004097400499602929	0.02334807061720877	0.06790372143359373	0.0829270270654327
-0.04773159239605348	0.004719752359282892	0.2432029704548905	0.06435286433276746
-0.08498533817424093	0.05205016873443663	0.007288230384606978	-0.03266254753140723
-0.0740453797976079	0.05805663928803403	-0.01240973504335728	-0.04426210225123699
-0.02147068100512944	0.08252449170660733	-0.02697730162948369	-0.02580201032315395
0.02009744721660792	0.1013510653215192	-0.08444996160815822	0.005839424152563177
0.02609941220526211	0.08980328663115553	-0.02367717426390661	-0.04806075771685034
0.02727650292373001	0.07037009852185781	0.1313016821988457	-0.01771103399254307
0.0246909254203528	0.04952733466326856	0.130188897974265	0.06479946139427636
-0.02853269956471786	0.06293406311795399	0.06652270901222047	0.09374358523487177
-0.03083135396024096	0.0914631165285697	0.06916180749362993	0.07723680618887524
0.009485219865177181	0.06820733651593712	0.0194540796682344	-0.05261262006754901
-0.003797613398181958	-0.008947983970467222	-0.02244009608406558	-0.09669102721023887
-0.02521412855160977	-0.04324305024079966	-0.01323655046043593	-0.05662063706143788
-0.03932172917264897	-0.04338004426373534	-0.008112141796271422	0.0176479511916256
-0.0173106341520004	-0.04910954173525862	-0.09459410349310393	0.03979948546878048
-0.02380279451675668	-0.05333904591420616	-0.119886120047992	0.02824804153849325
-0.03646546758129507	-0.05111781433733519	-0.08268634236831628	0.07494035679898328
-0.03932973908965129	-0.04171211090579989	-0.0744878363358681	0.006428285818462647
-0.01034688567402997	-0.03770115043676274	-0.07126423599718949	-0.02556235928210318
0.02500126791953426	-0.02720655458402761	-0.05154817747861774	-0.01852249248289559
0.02291578220343794	0.00328215531831584	-0.008710789297357208	0.0584544855689134
-0.0721597052703891	-0.01022186058288839	0.05581978120713674	0.05843917628110314
-0.04398374481134659	-0.01119261558372063	-0.09738661410249419	0.05179537727091019
-0.02126296105934049	-0.02282011436027067	-0.1548299161965097	-0.05522505830113499
-0.005384104936769044	-0.01570908512844386	-0.2398475436924164	-0.1260240500691052
-0.02117010246585069	-0.02003516621402533	-0.2874922734975744	-0.06323370806592032
-0.02495267814553471	-0.02068214869510476	-0.2125323754835953	-0.01906554266620008
-0.02096425879623471	-0.0461028988183658	0.211791957381934	0.04547327933725461
0.02727232877085051	-0.1549124171873291	0.2986292759667072	0.08256456926484362
0.04886397278429479	-0.08059325530487049	0.1883305790001285	0.0686345458548864
0.007330026199646334	-0.0201021003483739	0.2545008670427975	0.1141751539637523
0.03219309182387485	0.04604576735915344	0.2069316243195529	0.1176218327105789
0.05038870276973724	0.0817062712883219	0.1159448613396781	0.1013518106830903
0.03822462956980149	0.1074739148066968	0.169678775929363	-0.001921339400760698
0.04906152215988913	0.1147321155626358	0.112944380184074	-0.07548952860315689
0.02775757772061251	0.04284908093754584	0.08647639280307068	-0.01899179200493924
0.01520769659438408	-0.0008812336840001705	0.09379760574144776	0.03978148305986474
0.01848972965948777	-0.01413674355238813	0.03605957925501592	-0.000823509746107886
0.005383122983161764	-0.01052984055464319	-0.05577392231404499	-0.05741912696493682
0.004004652923154245	0.006536260661095931	-0.1074961752381684	-0.07931539469432307
0.005503613010568996	0.02089295785489767	-0.146772005811504	-0.05391579342533769
0.01392231079895542	-0.001043941312158267	-0.1677215941175897	-0.01879551775508418
-0.03060670021228963	-0.04790621184822902	-0.1615016904086295	-0.04423793795530766
-0.001806619164863508	-0.05495417687231822	-0.006016496204631026	-0.008617474818470605
0.0212945536586454	-0.01153348943998546	0.1909305697070593	0.05625383572129886
-0.0007896179546242812	-0.02431928531455926	0.1495296429104173	0.03975030107622646
-0.0238813498074087	-0.00933046965565352	-0.01101568006956755	0.03653625401270625
-0.004309062174979932	0.006110764983156292	-0.04942349220335332	0.0644252487381414
-0.01001359405253198	0.03335675333676363	-0.03286296014513387	0.08571425275055274
-0.02491489471850911	0.03096820363539916	-0.04822342892746803	0.04660736167116989
0.01389054738834869	0.03475156481774336	-0.06893514058481263	0.02078240824893541
0.02579898482114825	0.03331564458613073	-0.06798065087375484	-0.06451411084613905
0.004289028904489083	0.02526646550694563	-0.040967323472418	-0.01671578270433593
0.04028828379121227	0.02275229204688504	-0.02505664768866803	-0.04140295455960534
0.0267056831430553	-0.02176580057104088	-0.01108011398753841	-0.03053772272116315
0.0216500214623494	-0.04048955625097788	0.008777099673794083	-0.03701865428374879
0.03558451838478689	-0.01039858145291764	-0.04561947352861428	-0.02266459044842604
0.03106731249519171	0.003452172625560636	-0.0663768916280229	-0.04159455469958781
0.02095737238677651	0.002990631235889771	-0.08241805119340352	-0.04812094598772156
0.01710660831124108	-0.01050370454754774	0.02338655699606002	-0.03641512978854187
-0.0006404544228293924	-0.02833760183049745	0.05641177158057177	-0.05728751098604368
-0.05203122597001139	-0.04242174971252962	-0.01570852989610828	0.01997202725510447
-0.09650223099383151	-0.03661623913484394	-0.01206831310291831	0.1110948347994325
-0.05793864676582778	-0.02628306629268119	0.08460456853451773	0.1497538595994868
-0.05914285220537336	-0.02131487049769436	0.182441191247009	0.09813754257472376
-0.02445709627408884	-0.01350889530775109	0.05028590832434754	-0.0307407775952581
0.0305734913462374	-0.005275147662206376	0.009779440566137948	-0.0564504721360616
0.01789767573219189	-0.01139198931474137	0.01703385906510012	0.0404522365200938
0.02059576827594328	-0.01804987260458838	0.02818832827625171	0.09949375951835794
0.02082756694671222	0.001095097973361343	-0.004113004456070413	0.03938308128711415
0.009312508036158818	-0.01456987948157796	0.1081350502288353	-0.159458020714372
0.006389503936006742	-0.03291998236356559	0.05089880420826976	-0.2056627160381618
-0.06510305958449548	-0.00782517112903062	-0.10594694436468	-0.1132562459675281
-0.0796749005345456	-0.01539187548558329	0.00741052102021379	-0.001406666144081048
-0.03630923353524544	-0.03319726908815403	-0.1300775013548059	-0.05512198449444455
0.004903094114049361	-0.04263519334730324	-0.1443803135503073	-0.2026901884279769
0.01098946619271521	-0.02207276807970124	0.04096335432112797	-0.1636116926472573
-0.004517940365052282	-0.01411556733003465	0.05207121224155988	-0.04697520069722533
0.04144470451364721	0.02370480336427761	-0.09008068315858525	0.02575964845669925
0.04781049372749366	0.04097230701918539	-0.09204309538742507	0.008129444282856998
0.03705264766269509	0.03629352414152206	-0.02743840874905248	0.02857684437669758
-0.03535539743584985	0.009517127420409419	0.004721997664181808	0.06600012600020044
-0.04714479982670743	0.006667575052206269	-0.005559290729539723	0.05128800074376789
-0.0241769550176811	-0.00262149879512373	-0.0254179713460802	0.04258025348777326
0.03066387549386655	0.03873455005206622	-0.001400594959632588	0.01655435413323156
0.0515579812596593	0.02647207184081695	-0.04044458471035497	-0.07300818310069425
0.07534371074682376	0.04238671429200289	-0.09316218714214748	-0.04611111381059357
0.05176096660665383	0.0336904324621269	-0.1096116966186176	0.06721506041668959
-0.009196512697394386	0.02052691608823887	-0.1098979986087764	0.05976854500663967
-0.01820648334686601	-0.01101771647951768	-0.1379273059071545	0.04684883316897637
-0.07314707531035423	0.009151322510025858	-0.04601676960046672	0.06524336021521582
-0.08211196294510373	0.01567347723625637	0.1081122334794223	0.05877996278352875
-0.04651989752414937	0.03146697258297764	0.4321692276884063	0.04878250647637541
0.0332232536948123	0.05626767490999032	0.2783344149640191	0.0511459715455043
0.03082709320675483	0.04494782742767855	0.05635863370011882	0.01784406847430023
0.0380991040164129	0.05565601195722873	-0.08605174589446959	0.03097758467714129
0.03519458055967985	0.02750150233833574	-0.1377380876767541	0.03807847881871742
0.02320347696507909	-0.01925228005805039	0.01844356730607282	0.0440158838328913
-0.01589896161859175	-0.03117580357166886	-0.01487407156001302	0.05750928701545416
0.001497615164479961	-0.1118909814298685	-0.01517607784555101	0.03474216646740941
0.007645555608189043	-0.128226248974474	0.09836115415978876	-0.003286243059808523
3.315807656173128e-05	-0.09805583487790914	0.04815979541787375	-0.001842267330410948
0.01681864359380433	-0.03848358748955834	0.1309340573234238	-0.03455576616292572
0.03490260417194856	0.05109888547224795	0.08752478273160622	-0.01672300881997042
0.01751070894180931	0.09861143691883004	0.07958083511507484	-0.03116535166009998
0.00391299385920368	0.1262932828126445	-0.00192740377254056	-0.07345239357289712
0.01510777552112216	0.1563100583162796	-0.01258566197714034	-0.04109453972526981
0.02741018063952617	0.1500697631090848	0.0372677832867797	-0.009072363742840931
-0.04282341383335922	0.1051072181311215	-0.0008933330185866267	0.0164841366475132
-0.00220580612146612	0.07780975537453753	-0.09637139730757137	0.01248595578706093
-0.02426341024398422	0.03309760206274906	-0.1229188497274567	0.07629346136447571
0.009198778241151001	0.02080004301530836	-0.09444804748468644	0.12405783924712
-0.01251385266342818	0.02644687284223408	-0.1330038066433423	0.09382560451824148
0.002910561740710094	0.02009383728884682	-0.1314845220700842	-0.02032258681331989
-0.06374616875190187	-0.05633381907308316	-0.01097794096956107	-0.1219233773704118
-0.0636247629254299	-0.08493604016481941	0.0619197180567757	-0.1212729971126021
-0.01581510137174341	-0.04154636623079729	0.004836598929998756	-0.0687008631156846
0.009306306992194256	-0.003330661999581756	-0.02102504350981883	0.09184741466672841
0.009595647383531287	-0.01373488519250373	0.02949192123629153	0.0467943377276273
0.02024830853757575	-0.01904727802610739	0.1257957924468794	0.03440506396448481
0.02327176724400084	-0.03050146699300406	0.1670205721266783	0.00901515033528939
-0.0159052491732172	-0.05631301179848294	0.06578058022934864	-0.08324974290581139
-0.025588278383247	-0.06488397213187037	-0.02646439817190777	-0.02363039550490778
-0.0583152275486153	-0.07094469408613328	-0.06938401925575685	-0.009703945552157936
-0.008355656258690836	-0.0640254383637448	-0.08618650238309242	-0.02368560479573284
0.02045112538002441	-0.05564624270734322	-0.08881699048402936	0.008223673533821091
0.008043800855744524	-0.07281729353754693	-0.1292094447285925	0.01405491829535575
-0.02731460612851307	-0.07271399461392392	-0.1795863456530526	0.02323041339364152
-0.01495272547583247	-0.06418995351760656	-0.07141594151240976	-0.07902794402964082
0.002189216842123955	-0.03531625395976479	-0.07038952589028043	-0.1190251165705524
0.02758592960485216	-0.03500316652964074	-0.03527878081915096	-0.08450959920167396
0.04119679199686339	-0.02395888776975692	0.05577048580347399	-0.03149950581600457
0.06359440775881212	-0.01669812363282566	0.2767040078497041	-0.01034702187350104
0.05653691107127703	-0.03209839565571979	0.1781400507249335	-0.03915868877690206
0.05701354374242481	-0.03350009644758259	0.1235257714994556	0.01719779708084666
0.01988619233619923	0.0004088706527145323	0.01654701301099603	0.1422706344094715
0.0352329008848528	0.02811448274986643	-0.1284465544280564	0.2585814319515463
0.02394012632569904	0.01391404739755498	-0.1465013168565623	0.2386775241370297
0.01050230620881811	-0.02722280811332812	-0.1621526542454609	0.1451510268294877
0.003833363893143146	-0.02980461779345061	-0.06402559111810519	-0.1221392322692466
0.001099030748686031	-0.0009616756325180868	0.2129718653268933	-0.2669225731024352
-0.04367712534318844	0.02986060697556701	0.1740518764065641	-0.2045168339157244
-0.03828537598784646	0.06234009861057706	0.2173374145992518	-0.1186004675941481
-0.02357208285414292	0.06799338272535634	0.2407960592884592	-0.03587720703181254
0.006934883218875358	0.08667767862443831	0.06871204364540905	0.04630025692806812
-0.00118479154844481	0.03142265160994649	-0.01660929648678961	-0.01967607151714543
-0.03668679351192223	-0.0331236283283076	-0.1047675377876521	-0.05867625347072219
-0.0576944866641331	-0.01887676840645397	-0.02327104319108733	-0.02525174655874358
-0.06193304181465371	0.01235566108498664	-0.02932100209612489	-0.002717088309431437
-0.04850290736902387	-0.009530807634603438	-0.04176270344588515	0.05333362765191922
-0.01297570870164438	-0.02051386645507659	-0.03188448935248375	0.09433426188724796
0.01358449303217945	-0.008972990973501191	0.0547632160306664	0.1236955423441548
0.01542597521310138	-0.0151992350694675	0.003132848122266756	0.02358821733149613
0.01345394807021499	0.0005108166461373458	-0.03111108246569291	-0.03274688762738778
0.006948635459860636	-0.04658070444867374	-0.1348615109712671	-0.06583862265004688
0.02109525526156864	-0.05658873940488669	-0.1109778566870705	0.004763818367378345
0.01777790664295608	-0.0337873196748913	0.06885328472418852	0.04319132121282522
0.02062802647848665	0.02346536937511921	0.0508031453567744	0.03854672946111005
0.005154425193586822	-0.05338517422760812	-0.1091416398768086	0.0100392295487955
-0.01100092794248886	0.01240014238648232	-0.1448694647158831	0.02356356256691181
-0.001560544897657306	0.1047337500292838	-0.1445213565954198	0.05647098218112694
0.01381308724884499	0.1481447650966156	-0.1278837847908268	0.02504995295998108
0.05308789226062797	0.143621318902383	-0.1161590709058786	0.02830802644581494
0.03615320877445822	0.05640164338857076	0.0679925236615341	-0.0139217729379511
0.05122990262463881	0.01835660377167161	0.1546253433349106	-0.02020719206433158
0.01905242455865218	0.04664177963066866	0.07165688086291643	0.003693497909962184
-0.001121250839139444	0.01686871892417328	-0.02703508685705968	0.03699164813638593
-0.04406216667919114	-0.0194339386489248	0.05487500897295913	0.04280682941554775
-0.04155650688925974	-0.03953853021399105	-0.01292667141311316	0.04733075124377441
-0.08611547094068978	-0.036005753821343	-0.05504974369280356	0.03119113385169904
-0.04903090817754552	-0.008751356917301457	-0.06936000202172067	0.1523876251810045
-0.04121744513581714	0.001464644341262182	-0.0218708759681269	0.1401754753628661
-0.03183185689528888	0.0307919853079748	0.02563106676547238	0.02946247917808386
-0.02630532518903174	0.04971692308402841	0.09936256691459318	-0.08252152387654606
-0.03336732342995077	0.04562515824169266	0.06834476594261818	-0.1264613856820897
-0.05756536243396182	0.03936049845106335	0.02973537279237605	-0.1520502252226711
-0.02230404664253459	0.03122654718913326	0.02966719029898018	-0.1388819302925863
0.03236476266499113	0.01183960831388062	0.01033999585995275	-0.1619406787520012
0.03311272769806016	0.005633968095900813	-0.007755542038607443	-0.08854918499599285
0.01188592570754768	-0.02214916473148495	-0.05463037143374736	0.08633366281698265
0.04864940529423347	-0.04834245968289942	-0.03729786625420018	0.113595471399205
0.06745627441009786	-0.0324852897324803	-0.003951071308469483	0.04879962342122644
0.06261163089807048	-0.03689038964266052	0.03192289521153641	-0.08183139579107659
0.05155980800045255	-0.04899456652908466	0.01472957541502731	-0.06582732243585429
0.0348582431093424	-0.03146253626428785	-0.03712225455043906	0.09770491621518528
-0.01013609064065541	-0.06815499541270759	-0.05390779513969397	0.1718058390432904
0.02559351812859532	-0.05167673499096216	-0.07041050914359917	0.1190552141712654
0.04418836797772481	-0.02499519633641226	-0.0189316443994472	-0.06907251449263888
-0.01266367841027822	-0.003507814148883334	0.06826042984389173	-0.210667213571798
-0.06007437864591632	-0.01097003877872489	0.1278248181172182	-0.2184550765978806
-0.0335846856843305	0.01755555924096423	0.1053376807953181	-0.05458268234314528
-0.005715517517067646	0.03204589684060642	0.07308078717575897	0.01197854596007131
-0.08743870067679989	0.0222905092636402	-0.05163443844245075	-0.004283693520411846
-0.07113457843864709	0.01988447586678486	-0.1250306893166932	-0.02826451809842773
-0.0182699185063077	0.02009240582243956	-0.06911962683566086	-0.0360373692638088
0.006091243161655612	-0.00664946157393767	0.06696091508041618	-0.004734464029587362
0.01788685898571133	0.005891703043426981	0.1432122920135575	0.05237366965685746
0.02295391692912245	0.01599758437156747	0.2132858773703535	0.1000840671695521
0.0292947527858061	-0.001517921266831615	0.1188842287880677	0.07604840209923822
0.0006640673850677298	-0.05056491721225265	0.06669851968778179	-0.03835023138333071
-0.006808023783571328	-0.07764996364124208	0.02764448847796837	-0.0234634445431897
0.009906958150983435	-0.05543078659262716	0.00316233712598944	0.04978564356586987
0.04551463955489856	-0.02711235564949215	0.01272392378729486	0.07662725907563327
0.06029953586006773	-0.01326673484148804	-0.02905373772439724	0.06059370953385102
0.0607781379001171	0.005078661608602318	-0.1095031786888011	-0.006379544075071637
0.068952297789178	0.007031117230553222	-0.2909909856666652	-0.1028378518655935
0.06834804598147146	0.006192773497390536	-0.3523486093840162	-0.06837232946341162
0.02429544941282719	-0.02732884447974751	-0.3317860986615102	-0.02535645892888724
0.01859938578862184	-0.03865095434683324	-0.033057769194045	0.03010246003133918
1.533641457988899e-06	-0.03970213495628383	0.1865004604755199	0.05246271336676122
-0.008355502607051266	-0.05852124695716462	0.2756767627154595	0.145468179915813
-0.04524196426653777	-0.07137270356227872	0.1808376551436754	0.1169762688444917
-0.06085511782618903	-0.0602226283850883	0.1376112327789097	-0.009586606253381079
-0.09153613453467543	-0.04046854286182371	0.1845889040156052	-0.1079327249686221
-0.07330175727102516	-0.02908439081082627	-0.00559017344410361	-0.1752672800184609
-0.0286953571702977	-0.01251301461524937	-0.02085614876254563	-0.05516428981637422
-0.01635247613443288	0.03985956567962329	-0.05716471167875384	-0.02169796592324123
-0.03552278824582551	0.08719273116907084	-0.03132480791187952	0.005880978779637175
-0.04611773884199361	0.07164276905549016	-0.04998849852081278	0.02306010737820986
-0.0005964363850866356	-0.03272653089685638	-0.04370862743458157	0.1254773035702227
0.01096138899583557	-0.0659346199235305	-0.05157708532023185	0.1734146155505767
-0.001910973091150011	-0.01711018037157058	-0.1220715055824161	0.2061617601216047
-0.0007989532215490968	0.06717022100273619	-0.2199863861561641	0.04944864974527977
0.01374231596258165	0.1408698178463972	-0.1435511048652381	-0.07320593879176476
-0.01183630294319934	0.1586788929115321	-0.05335367671744227	-0.1326894452135446
-0.01244195874534874	0.1413444347277424	0.07362221444799424	-0.1342442679027877
0.06560281480477281	0.1841948263120285	0.172987449830417	-0.2050707255557295
0.05949805928852855	0.1858368896718716	0.1572444917757532	-0.1411648142852497
0.04216114683755476	0.1187677000350993	0.05041173139801591	-0.04099634647115061
0.02058213610465452	0.0771371285620388	-0.07661233725191828	0.002877891591684165
0.007709489764118875	0.03207453327333858	-0.08793420001966799	-0.02052188093691427
0.001872948812521102	-0.01906724195523021	-0.05299725750808934	-0.01772639728496775
-0.0376461659274481	-0.04956222518913701	-0.04006163516120615	-0.002839278941858822
-0.02908302627381859	-0.04468989411444224	-0.0393741695802363	0.007355429069185876
0.02492161409586004	-0.02504858574505408	0.02595646789013136	0.0650832580071431
0.02313497028015869	-0.02709394321522706	0.04097828162576807	0.04832785855992942
0.01954084617437529	-0.04482473817503475	0.03865583180853233	0.06047426748382561
0.01487641797702191	-0.05234350871896862	0.026327062864862	0.06485828337669258
0.006913782965279387	-0.05870798640664257	0.06312545162477069	0.06849421492266733
0.01385068060289954	-0.07323047116976754	0.08358061162451967	0.1040090619907532
0.01862298076614239	-0.05715450655768044	0.09829434221748305	0.1003045385839892
0.01438720945015775	-0.04018790601841252	0.1170301380863053	0.001139882679645656
0.04179035795586456	-0.03702477099194702	-0.001574704908004128	0.001911143087337294
0.02344543528441742	-0.0263107143818561	-0.05245802777841605	0.05663423001241447
-0.04692800422729843	-0.0100458905393263	0.02021926683166172	0.1315457978547028
-0.05749507635312011	0.01365771324641097	-0.02400050698712465	0.05237615211211324
-0.0348548747008606	0.02125184567580714	-0.0397416511589286	-0.02418638220193061
-0.02745487261973029	0.01169348924334442	-0.05292957098817413	-0.1434017039006051
-0.01806594087862739	-0.01732403477496377	-0.05336423065426629	-0.1449586293431011
-0.002420837032637767	-0.03444029341665179	0.007000901318293005	-0.08765808570807578
0.01282929992334076	-0.03908160304354547	0.0444956058560293	0.001728782967888743
0.008850509618824177	-0.03658404742420016	0.1206611106078879	0.01419150726941614
0.003697890324558825	-0.05423513276860743	0.09975681089227585	-0.005778732460986767
0.0162701153916	-0.05699001419605332	0.06342377973246718	0.06856950648495325
-0.001742012295741837	-0.06100441080356992	-0.03484847273937293	0.06086619867038692
-0.006434114947481373	-0.05533668050824336	-0.06485476244189986	0.005418352621766728
0.009207872029443486	-0.0400841759239681	-0.02297767356556906	-0.0676037130781202
0.01150229295304029	-0.006299931856300904	-0.04319829954027761	-0.06358954146895278
0.01158997022502853	-0.01029822512951888	-0.09480678152400555	-0.01328074712675962
0.002832916052147625	-0.02771192367124345	-0.06497852190928248	0.02413182506102825
0.0009724853707134409	-0.01980832255239167	0.006860928368398396	0.03165203415032227
-0.01663561873979103	-0.01379772009919589	-0.003505375163174893	-0.004226266022247077
-0.03916037395255442	-0.02207161370277072	-0.03011513049492442	-0.04885352763076588
-0.03797798243367731	-0.1073652082377732	0.1376167581837626	-0.02162929811127955
0.008990259503241954	-0.1116981935547684	-0.04276734656070463	-0.04904085914374945
0.01815811052429432	-0.1231477576666801	-0.1455371802379209	0.01322194113689102
-0.007398210010416739	-0.09392643624554753	-0.1687118822182048	0.05746216532332506
-0.02750608792969141	-0.03511789720917379	-0.180572004249116	0.06096090977069028
-0.03757646767125	0.05610505151553671	-0.1298839277547064	0.02201651834956195
-0.03760394710279296	0.1268687717383457	-0.07526021345841111	-0.003801137244604514
-0.008450725085716006	0.1584836102166923	0.1352947755932195	-0.02356830549582056
0.0359545930483752	0.192564279628555	0.1472386244280196	-0.04470259809948959
0.04564900051187493	0.1794770749824146	0.08899305593278264	-0.0170438353426393
-0.06521142708745561	0.1444263034256109	0.09866692793422283	-0.002016294127400435
-0.08556953914082938	0.1214309612849786	-0.003367405257558092	0.06111434998405404
-0.03495963443895561	0.0607233479417307	-0.1000042188492331	0.04199397399391098
-0.008839559410601884	0.01470498217963846	-0.02861728573068786	0.03320317744938889
-0.0009615470277592262	0.002703129090940576	0.08017821053684439	-0.1015736643545495
6.64062766145281e-05	-0.004415933366346619	0.2247236934382063	-0.1321311178298783
0.0224455127445359	-0.003041802759359494	0.00493586060050194	-0.05354017259115552
0.0161870393325728	-0.0126210464046478	0.07700172811344505	-0.01542572331338168
-0.002757433987885575	0.001810622195796756	0.167261872941077	-0.02039395005383518
-0.002509470624920195	-0.01372433435846054	0.06026783475655699	-0.04175577801046351
-0.006010714435475443	-0.02392737383581305	-0.02153809516790001	-0.005879162247446059
0.06398659018268245	0.005296248961141211	-0.01741295464390405	0.04118442184574118
0.08923904556869262	-0.0002038139162606782	0.01882382988150443	0.08120070830889509
0.05424572467274741	-0.002438907880536964	-0.07813270260193428	0.07070882130992125
0.04851806215928054	0.00550468732165802	0.0019394600720299	0.03440052990661582
0.05396742720748898	0.001179533982158044	0.05651801075576651	0.005006135350307656
0.008062556850191287	-0.01466117061251658	0.09012770580131919	-0.02103916969927002
-0.01065253381705043	-0.009806591877058473	0.02809695064660775	0.06552675608089113
0.01382947212151247	-0.01621255372512641	-0.01460328054349685	0.1258003039294852
0.01656141999815981	-0.05978533628310835	-0.08182759056469777	0.06527548317818929
-0.002309157188289337	-0.07526084532981629	-0.1263022446268313	-0.06916377576271386
0.01251792981977519	-0.1128215169780807	-0.1415924794700526	-0.1965649748684559
0.02341815695317767	-0.07267671781587218	-0.02969531849614014	-0.1108784558154023
0.01403437056438433	-0.02626962046641905	0.09541484996086116	0.05550589554324183
-0.06211505846620269	-0.004490248024474714	0.006131465288199467	0.09309913040516522
-0.07664756156718612	0.007932646376830171	-0.0744870096393376	0.04313158396374599
-0.0514415767149875	0.01314639470563456	-0.01565287717000997	0.006109042988660975
-0.04873214162884171	0.03276954606899827	0.03372916976736437	-0.08997569257286123
-0.01729608669574953	0.07102860562141661	0.07136880943030947	-0.09789400203580888
0.0258694678305348	0.06993815393914962	0.07331146300046573	0.00576413171787152
-0.015075776453478	0.03365573238201378	0.04954488816861201	0.02843279952926733
-0.04641778931818554	0.04818979573737461	0.007769480024260225	0.05488774079764781
-0.00464860496648587	0.07874708849756622	-0.02371085027803381	0.1523984624859755
0.03166767824810977	0.07238737801347167	-0.09119113917965843	0.1637272404696038
-0.01119906702997717	0.01893124593763622	-0.1639207642455859	0.1614122276271998
-0.08596460860887604	-0.008295768786044103	-0.1434816363854997	0.1293788886555431
0.000956168662022899	-0.01756598602855323	-0.1290187678897206	0.009721998649571349
0.04204036366355821	0.01116327986263379	-0.1168717486191023	-0.1231077810807621
0.04564348942877382	-0.06778967640722404	-0.06646278904508587	-0.2667509452801605
0.0567231549980691	-0.104539404847899	0.08034263570922545	-0.307496530126906
0.03866620526329183	-0.06972552950881414	0.09052155176943978	-0.2003534215513407
0.02954751514838372	-0.06014306255404201	0.002914074283366055	-0.01934806152320167
0.03973991185995274	0.000869724750816727	0.06067792644718802	-0.0167716781673927
0.03446050675760028	0.01970939124182526	0.06473722394496215	-0.01820531602515982
0.01349576076566029	0.0348749074179695	0.0617132808539299	0.01359679817168212
-0.0109746230417849	0.02787342715098503	0.06510924063115946	0.01170050270462614
-0.001215992098176356	0.01893088465238195	0.07807571834080015	0.04274020169426032
0.004268706276299585	0.003316428734491184	0.04895762723092875	0.07008282188557852
-0.005885753819571518	0.03104755333579159	0.06021704944597644	0.0841629637306425
-0.008672943955091135	-0.02474906202038852	0.009880840646614677	0.09878754066712415
-0.01987221344999278	-0.02738352501985186	-0.009913287897507049	0.0694917373915659
-0.01483724766076365	-0.04256013108979392	-0.02060890870845203	0.02620123580715867
-0.01071478587458505	-0.07575107352214452	-0.02601257584865769	-0.08499911843539527
0.02723653402170053	-0.0847693964716499	-0.05651075545638862	-0.06122976964900748
0.04893261204009593	-0.0340413228281482	-0.06421352685749133	0.01309279256570878
0.02644567265059919	0.018874269779864	-0.1122227570311589	0.1090447935010128
-0.06591263852711648	0.05400934440816083	-0.1083971050578873	0.1036470896827687
-0.1708441797541764	0.0654181261346875	-0.09172870765600129	0.07837566393681758
-0.07763824711987288	0.06232709722784861	-0.004466402095587729	-0.04753917012397981
0.02821749543313095	0.05713022355660588	-0.08253556155996732	-0.120185668352849
0.05195437628826805	0.04701311334268116	0.01535169681446475	-0.004857936292990621
0.02322181866049484	-0.006551602030794576	-0.008100091797986559	0.02860676945729949
0.02546615219254528	-0.003753146221335922	-0.1825308643907514	0.007535490336014816
0.01587948732239799	-0.004259720444970471	-0.04628675066750742	-0.06481327368249418
-0.005058595643646645	-0.01818160287462534	0.2488643882723499	-0.0941527397638392
-0.007101073666217043	-0.02497830972826465	0.181992868495408	-0.06454041308487399
-0.0146061168242709	-0.0295840151984363	0.262936688245421	-0.02729289991221564
-0.01638753852221554	-0.05358803228528188	0.1533986043887667	0.02419307332131592
-0.01062052419524893	-0.05365521087627389	-0.07383716989932192	0.003885020003389208
-0.0003933022807407922	-0.02106728768834048	-0.02354358189128146	0.01944251542761322
0.01479750302809444	0.0002417031396673047	-0.02412715484363763	0.01055228500117412
0.03921574257284339	0.007996494613474242	0.03320210222077295	-0.0006563238123645204
0.07703448251510664	0.01673817417552005	0.01543794355916601	0.04760505858435762
0.06896406461752287	0.03554250064481017	0.1978397120710259	0.09551330246340015
0.0363216310754901	-0.005805790088625584	0.004324948013923859	0.1039284873399158
0.02264343388499356	-0.01047733194105146	-0.1428299421705034	0.08685993947903965
-0.01383040541074119	0.002547438833508569	-0.1027990329555989	0.1572221666955461
-0.06702428962518962	-0.005919503855294149	-0.1190353696035595	0.06062747101844824
-0.1503874700610305	-0.01888024626262422	-0.1071483956142893	-0.02990935078610964
-0.04300346561996855	0.02676683852022796	-0.0249983883932005	-0.1939399174646717
0.007009081520559241	-0.03159757226112041	0.2821200701004233	-0.1742668868776609
0.01050470686925955	-0.08971062687938704	0.2431670406151322	-0.04936091736848322
0.02023641433727202	-0.05389651749123551	0.02788211497524587	0.05721604195956842
-0.01113836979644967	-0.03481387184525338	0.05300734700731488	0.1031745180838949
-0.01936517415262319	-0.04501496587641927	0.01871363574690989	0.09044483881546583
-0.03900051833558667	-0.03641658731810782	-0.0206831849615849	0.004063961510943027
-0.05174142376710257	-0.04065766058538869	-0.03901577457084476	-0.04413814313741289
0.01104313499975163	0.03491310705438654	-0.034003498266827	-0.05962147402024551
0.04696568805311732	0.113516679831094	-0.03723777794131772	-0.07301054051971793
0.03893759074032584	0.1346775964632447	-0.07267025765226343	0.03135754224958517
0.0276200803744688	0.1170177929080895	-0.03451385673406962	0.09617315842136058
0.01987764884177268	0.1316598179270279	-0.02555822166669595	0.06097608563038447
0.04394418237180464	0.1226736846796513	-0.01142626467402112	-0.03904136060781149
0.03393614437494948	0.07863663582258673	0.0343399488325666	-0.1380111734013506
-0.01009932668228967	0.06206199144405752	0.03879274434059922	-0.07651974885386451
-0.02074299959731194	0.04410852901902206	-0.1015803716198733	-0.1166198292093153
-0.01216110936270063	0.02310863059972273	-0.1569634284274952	-0.1048917158279791
-0.006640730464687104	0.009602137101177209	-0.1331990890027613	-0.01334357828693846
-0.02064208981345978	-0.03847119925469366	-0.1101267787438169	0.01801273475860041
-0.004802363283736543	-0.05183509351222544	-0.09850309541574043	-0.03097715264037173
0.02358027729661238	-0.0729313578909038	0.171790243432908	0.01444575433042909
0.0209717441977615	-0.08077355664228265	0.04792711262925424	0.06249986719362342
0.0238100888266349	-0.0731092636255893	0.06586710399184641	0.05348374788818712
0.03243785729589333	-0.02250290482370533	0.06595604941657962	0.003833362687121425
0.0002093122386083207	-0.01996283993652165	0.003609148937488802	-0.0159999776852947
0.005107596348052932	-0.0405539724914777	-0.03180105163506967	-0.08066287319251236
0.01037002611436924	-0.06403433443318984	-0.04537745475225102	-0.02032526143610977
-0.01441196586743413	-0.0569976368860022	-0.02086287528129452	0.03194118549374979
-0.0167049912332219	0.007011833033188804	-0.05183730324363264	0.03414744409064658
-0.02679757919157438	0.02379161164564116	0.007254598526386711	0.03097046067004943
-0.05620711567732645	-0.003340965786115361	-0.06733092183377186	0.01384642210505498
-0.01631368612640278	0.02228835636443985	-0.0739891764082994	0.01875889815395643
0.02848420969071152	0.03843907197109282	-0.02480340049112246	0.1913847920263801
0.009846819406965966	-0.008195310111948621	-0.01829246907081301	0.3062938135342099
0.03175854589096753	-0.0156446038841237	0.03430270506594912	0.2585778181900686
0.03437137025619648	-0.01431919188559708	0.071510889678738	0.1535234255630634
0.03540430669845757	-0.002277942663868744	0.01332449844956206	0.06933751521914913
0.0238060010376084	-0.002947376609577641	-0.03200951448429788	-0.1536818574417748
0.007267006364754814	-0.01819494597947691	0.1583724050442464	-0.1436080206963663
0.01036538468891685	-0.03340607161960754	0.107865378566907	-0.1225545539915563
-0.002480954413489969	-0.01635099842980992	0.0137220631766819	-0.140611724880244
-0.06281045518797622	-0.009721894004450046	-0.03688854237235531	-0.08782398317003619
-0.08071527396109525	-0.01343983708461746	-0.0077059151558434	-0.02928804400915929
-0.05997269910145945	-0.01460368730367687	0.0525638418014877	-0.006819737824097661
-0.02060904940831196	-0.01890801517184321	0.05150640147009868	-0.05194342712723689
-0.01944640217203284	-0.0454501333531306	0.02916514553276019	-0.2298001222130918
-0.04614433851918347	-0.02673303693689931	-0.0152335862231556	-0.1674134403976363
0.04105782367931139	0.004671770403666936	-0.1456165886850647	-0.07160990563105148
0.06699324332583054	0.008329299245090403	-0.1771732173637207	-0.0584542283171881
0.0542906986092456	0.002475121370521742	-0.1375470141174401	-0.03919445891709125
0.059067015937881	0.01084074033045264	-0.07149423842210777	-0.07429322005739619
-0.008302392390298308	0.004745575822358383	0.3684421895363463	0.007853693286614141
-0.01885771521765494	0.01356037980523651	0.288586520249605	0.03868199334259105
0.008443970156267912	0.03043092628631718	0.137843477963289	0.05486887754387804
-0.1034469920607788	0.02807172815221807	0.003451798588083295	0.05779679547737284
-0.1186585549670169	0.01522877913631589	-0.03103344771183533	0.05235581759172565
-0.04353761470966637	0.03805276116253171	-0.06224326219963888	0.05281978618270099
-0.0285072889551189	0.03166688772439533	-0.04014900396032593	0.02180290685708644
0.0403632013997246	0.01427729682619605	-0.06450667753283866	-0.0002102109605879544
0.04589248458526769	0.02215900730494928	-0.09251837673466447	-0.03184494650868758
0.02892011307740098	0.01278458639773883	-0.1193723052088602	-0.0351242914671563
-0.009711263985434711	-0.002563540944145147	-0.03962824037096452	0.01470624196374632
0.002258679429763422	-0.01902947794717021	0.06040413350636385	0.06587613419361601
0.00885873039097165	-0.04166603223978279	0.04836874632002193	0.1018605436642807
0.02567092683767629	-0.02388968910927184	0.02980364946114133	-0.05624491228610092
0.01230368173994837	-0.009516304492265291	-0.04269995338840028	-0.02556080242484478
0.004755515014384554	0.005140598671874061	-0.03087650592007702	0.01855556966815242
0.01080919452242933	0.01769511623639672	-0.09908621315148675	0.01642068698557201
0.01024213509248219	0.021819840553199	-0.08941302339209985	-0.04848453506126566
0.01077012268990772	0.01881785214596843	-0.04020222142112369	-0.07580021687395622
0.06041829388200339	0.02758196430857764	0.1412140531947607	0.03003266604031905
0.05479233429657516	0.0031237817114126	0.2038987691061004	0.1056142459750644
-0.02278354322678436	-0.06384506180706284	0.2254924957952182	0.1809735225518824
-0.02961401804521456	-0.05446572584245422	-0.004537559127367344	0.1430036289536782
-0.00598510204300483	0.01120671566808023	-0.05301443813158394	0.06811483954298031
0.035031878477687	0.05755191489202165	-0.01142573356750125	-0.06889774666714936
0.01190442884810002	0.04131520950642868	-0.0348428787912685	0.007208693359172864
-0.07821370824439883	0.02967744600326868	-0.007545945680746007	0.1369481796794625
-0.05779669796653496	0.04002377738054582	0.002978084099676679	0.1724288382296567
-0.04184034636343752	0.04690202401797077	0.0113239562580469	0.06314246143692132
0.0003123550485391027	0.0008538856779172796	-0.0019540211785343	-0.1226948574637102
0.006776805050898557	-0.07870366133327776	-0.02879962025871408	-0.1318182935826999
-0.0004519563754702347	-0.1519313596926367	-0.03120301795485323	-0.06634108035757627
-0.03041677756860123	-0.09498052058298771	0.005207579244448981	0.008966787754341513
-0.01138782272123719	-0.0005323447077982568	0.03249352511408558	0.05603022470905375
0.01747985543185577	0.06466650521097994	0.004049126552197961	0.04253110251447712
0.01757932690071908	0.09915817112330741	-0.06484051282346587	-0.06208279166774038
0.02874534264521804	0.1035344120704327	-0.0768744972185546	-0.08222248291262851
0.04739164123925216	0.07929415733772661	-0.1568507699094226	-0.1629640765287499
0.008496334571155097	0.07813734429690528	-0.150343619162699	-0.1100883652071946
-0.01141375378609507	0.06057602302092377	-0.09868946310626681	0.06147370297186334
-0.01253442762661005	0.03392571168701158	-0.1000511101605533	0.01980113792228136
0.01040586551392532	-0.0115984307855339	0.005246984643220919	-0.1473209298664054
0.05810006775289839	-0.0328113842161486	0.09856414700641122	-0.1222424593249807
0.04679263287540766	-0.01468874912858329	0.03936781187138062	-0.04734479578982386
-0.01241399761196433	-0.04754344877395245	-0.004173167212607515	0.0005341925100356207
-0.01280564266269183	-0.03810685367154963	-0.05045624548462711	0.05970729225993079
-0.01539143104910713	-0.06051288004682181	-0.008378567764585182	0.0918380651489638
0.00270705540607977	-0.06890044526981906	-0.01087835586442857	0.07082730247995551
0.008242540911516912	-0.07561087913974417	0.08004457815199836	0.01761894544210992
0.02298077571718996	-0.06292792228712642	0.08160875822113835	-0.03734485094497202
0.01376391258168832	-0.04446277626822529	0.01287198396254404	-0.04639118078054758
0.01973332727409747	-0.02821580895868602	-0.08253854347728197	-0.01601177267500511
-0.02196114662441001	-0.03594329192545768	-0.08396972546491861	0.06249912737518683
-0.03347548339899505	-0.0281516706575103	-0.08512260767562782	0.02997291764504282
-0.02190961084126217	-0.00550931043420589	-0.03847121712890555	0.0388778014779485
-0.006263594341318943	0.03388310090167682	-0.08409450074475654	0.1015931312034422
0.03708382693248512	0.05110782669298147	-0.08121393269933058	0.1174960931278675
0.03752732688688063	0.02199291524256288	0.06722040287254076	0.1154933880367821
0.04660899628939168	0.003098905028410127	0.02875432550459329	0.0716243269625927
0.02758244487816433	0.0004153172322763005	-0.03222379335503152	0.03364129145516948
-0.005409015896436015	-0.009610469287670341	0.1173574310128701	0.008031522000314635
-0.02809798452501714	0.009385000716618999	0.2134168079309892	0.02072470113045593
-0.00781650727607874	0.02913519256497433	0.1816427477666969	-0.01371674480957833
0.0004144719558398372	0.04266000150774089	0.1150422714867502	-0.09785881053580167
0.05441166796818982	0.04568927758753682	0.05720519389119676	-0.1359062356126833
0.0531853176880349	0.0179933910797749	0.008416806550504301	-0.1084911509698451
0.04565279721309929	0.04012534300743933	-0.03418279931786587	-0.02536345257132574
-0.002511178619375643	0.0331044546235283	-0.05007991826942262	0.02470627480868137
-0.01650602678583443	-0.01393333805700288	0.06059715405763538	0.06133200800233799
-0.02422805536506912	-0.0002166311178384826	0.01730457128221269	-0.005326842443490644
-0.08534757069447498	-0.028697569172717	0.1827028756427463	-0.07840465975507635
-0.05220894438353368	-0.02598868356973242	0.0874394170652793	-0.08313852109644998
-0.03377417104176515	-0.01572573720096845	0.03856883831140163	0.003611704609690541
-0.02000513652053262	-0.0147369473889266	-0.02198456373531942	0.0474425053055308
-0.05913017014118462	-0.0005978452596820964	-0.01035227296891712	0.04805417003339003
-0.05915707542181098	0.04238355313566235	0.02355302388862902	0.04085792285410376
-0.02675597587958883	0.06913643464325572	-0.0005187045030616453	0.03579364262179981
-0.00988653832192859	0.07164734283218435	-0.04993179394362608	-0.03312121264772284
0.04259483438179969	0.03810833025547249	-0.03258954389652052	-0.122791430169305
0.06116483141694928	-7.351267977370323e-05	0.1197899299854563	-0.01530401802684289
0.0509458837594126	-0.02208601222813863	0.0520678507176279	0.04259504490706249
0.04578017825589578	-0.04271734698926147	0.04085520172966069	-0.005739289378582984
0.02246734676509831	-0.06924941482516823	-0.01749487432436681	-0.04834572610782688
0.05828549923599385	-0.06183634476093899	-0.05695985591045966	-0.05805170680057624
0.00167794402798668	-0.07042769655872266	-0.08382796024481828	0.03163293540787768
-0.05119627500960736	-0.04474866684632705	-0.06255723414961262	0.1679180225065532
-0.00982095367089264	-0.007129094291012702	-0.09291904593962107	0.1686881563313631
-0.03072459338565534	-0.0152184375313872	-0.08077947978492897	0.08917077542980076
-0.06418058761802631	-0.03751032864434687	-0.04931184193815322	-0.08115155166460257
-0.05674876691504446	0.002514453174398268	-0.03026393456177734	-0.2725834834597003
-0.02833967229387728	0.02434408359859685	0.06495907065173215	-0.1499367972243971
0.01312384657155083	0.03384969397853272	0.06031582675046747	-0.06946331396143023
-0.007784785488780237	0.04736980417740272	-0.09139527254624702	-0.09504834497779763
-0.0169832136744303	0.04064228398127676	-0.1052323824379097	-0.0771542299853399
-0.0275515108569885	0.02367393214937315	-0.08848314547977264	0.1547179554679314
-0.05695903016607359	0.006806298643224835	-0.05424558510380435	0.2385508206738261
-0.06042981521075678	0.007902254228635735	0.09791586440926837	0.1070917187298488
0.004528670128724059	-0.003998331378956052	0.005744839065175863	-0.1460438149936031
0.04561714351791144	-0.02055797256458413	0.004066234460022734	-0.2783350694568046
0.03838260674869839	-0.02302724941089187	-0.08513607333140781	-0.1252771468287525
0.03367475207887179	-0.03783592553583737	-0.06662643957998936	-0.04286925860063966
0.0428367660491104	-0.04016079549509238	-0.0004334827381757798	0.01956227099727733
0.04279038329799854	-0.02473073031626484	-0.003285162596188032	0.07705441425707038
0.008768206606124252	-0.03336927074821688	-0.01878377911203937	0.07388959849689669
-0.008956990208550977	-0.1053107259528592	0.004855728260665536	0.0737286216924332
0.0004195633317708347	-0.07122297606615519	-0.01658896685272655	0.1295376340229112
0.01084741090114763	-0.01864586465772853	-0.04744289203335846	0.1329566368750381
0.02161126368392813	0.006626258412357942	-0.0523305681218874	0.1079719196457014
0.01119245244123684	0.09507956954675614	0.02138172091205225	0.04824806986669861
-0.01167948124759651	0.1078634304443731	-0.01160443070314849	-0.08734628087307628
-0.05386420837844046	0.05989825153361147	-0.09094197458819556	-0.06186099573594257
-0.04299346989685922	0.0526575757332	-0.06471068274557733	-0.04313216461304446
-0.03036287719020484	0.07329417027553904	0.1168930723937219	-0.04442479810253749
-0.01798019196497334	0.05851015831733831	0.09333275654607374	-0.06070996115818349
-0.02760434839269727	0.01063070903700643	0.03470648533694065	-0.03481761132312396
-0.02171549642611093	-0.002468178022204854	0.04499353106350408	0.0006360352394216605
0.008296355644582859	0.001954307777202601	-0.0107036947893126	0.01713863881942147
0.004931697549439957	-0.009346752352640441	0.01788822278055713	-0.008210083113830735
0.004337872406988255	-0.01288939656212448	0.08909447094233418	0.01778149062094683
0.01158502579086938	-0.01337578464647806	0.1207146656706011	-0.03434560707270236
0.02118844168141714	-0.00405053263901381	0.07051427014206704	-0.06607095100665955
0.0008783560489013448	-0.005649379434867661	0.004232391321388699	0.04773177823958905
-0.00619588655713534	-0.003473703623404114	0.03078219190085511	0.28891683659036
0.01660852328974839	-0.00287498474550825	0.02406496551405705	0.2439288294322071
0.05069468493617517	-0.01020489400843958	0.01415609465161257	0.08384428894651764
0.07605385034569505	0.0002969620317640351	0.05512645240034512	-0.1042447457536423
0.07081891621767458	0.005993669284169602	-0.008343017129262541	-0.2105945183328656
0.0423327509749918	-0.01035350816406719	-0.04064305414523568	-0.2044595064651626
0.0118321660727167	-0.04010613294349316	-0.0478477566206678	-0.10718538227901
0.03467171924755956	-0.00164932656147657	-0.01787123875843409	-0.04704843679351577
-0.002614116737689401	0.008430418670924119	-0.03982582188999956	-0.03454936289180791
-0.01656122234034021	0.03849710176337478	-0.03393835190036956	0.01851531110056073
0.01171545691414159	0.04621495786923307	-0.04802945204039948	0.03557133774703101
0.03702359243075574	0.03537921876814185	-0.04115815997775021	-0.05291328128471778
0.03140941241106567	0.03583471355789699	0.04115500047669711	-0.03075511636634332
0.02564177061586125	0.0001769212864843564	0.08759971622419205	0.02677577683482631
0.01884498809549962	-0.009081335725457038	0.04295235047342816	0.06091358145178383
-0.01800423160281085	-0.06843231598860749	-0.01104810485639888	0.04518221331297164
-0.008373800270075529	-0.08583096999303583	-0.132372772321592	0.03945243169088252
-0.05370204447008246	-0.06933242929833636	-0.1888372505398244	0.1275776994742244
-0.110833045380502	-0.05263163316101883	0.02766407103652112	0.2110370294397667
-0.09496720497681435	-0.02257461909763236	-0.000261328227756888	0.1638189003446879
-0.01539816602552479	-0.01093297261151485	-0.1531579390334861	-0.0478176756254186
0.02347808781870256	0.01214870351086931	0.02346671873213785	-0.1338167879037832
0.03208914494876761	0.03330388840201561	0.2415860693104311	-0.0725628602355568
0.003360016374465989	0.05853888818411048	0.1811958379353279	-0.05267078097365317
0.002570168997197825	0.08337337545149454	0.005585856331248302	-0.04955677867766539
-0.01380476066426715	0.0703539882893567	-0.05084421132417959	-0.04338232616009644
-0.0195230874843906	0.03395937647070572	-0.03820962246336456	-0.01705932155114793
0.0475618432511243	0.03086854750244974	0.05166730275555795	0.05171485259058783
0.04863747375486272	0.006427528909475932	-0.04319455943749116	0.01714053097235681
0.04042297991315678	-0.02662982846215262	-0.04992168771263632	-0.005282955348090313
0.05446059031585984	-0.03532516024589961	0.01124927217674623	0.007539061761510352
0.03968059925987763	-0.03030059132637253	0.01682749255332647	0.0225317232077187
0.0154195582387023	-0.02338930731407097	0.0881636119711553	0.05900807369450661
-0.1084601803523889	-0.01426114212509116	0.002479889726225582	0.05731591177008273
-0.1631960102657204	-0.0120414729827928	0.04977563755070997	0.1203197202257371
-0.09474721525756456	-0.007822389788101377	0.03201403145755759	0.07621458781126744
-0.03215203174209705	-0.02323154156043942	-0.002669362035612915	0.02499778377508169
-0.02847667618910023	-0.02068680078734865	-0.02745015608266306	-0.005719063244311134
-0.03083893464227085	-0.02715124859527325	0.05311602373769386	-0.002209579274418083
-0.02181961563211566	-0.03209919255558638	0.07728544586672159	-0.05584493424584206
-0.009584217959122857	-0.03318811363905137	0.007118595373853447	0.0143918543189058
0.01105638452069188	-0.0372049970312911	-0.02968501770498621	0.0700421576557905
-0.006154805221440713	-0.01664481773216923	-0.01603316322463871	0.01841633819937616
0.04786338955264416	0.01477161663581237	-0.06032014435649944	-0.01124122308165771
0.04870332425511141	0.001990220353667142	-0.05465846041734182	-0.116825601568995
0.04556029428401005	-0.007382367670496884	-0.03971352426648138	-0.06579907079187457
0.04855995831340629	0.003589708084784557	-0.08461257223909638	-0.03914504059597687
0.02781061844387882	0.02367801251164885	-0.08609652235986789	-0.03050997626711063
-0.005319253335467836	0.01679158531370301	-0.0754197721331209	-0.09165738728949853
-0.004953263190551904	0.0005916805367048653	-0.0485148036701862	0.01617992640039417
0.005138327830961343	-0.01868175477259388	-0.0496440516788435	0.09942899449034226
0.01303153507374186	-0.02768467972514227	0.09890695195884229	0.1018466556253411
-0.009135253513458138	-0.01776204164370219	0.09873734969858954	0.1185258406188817
-0.02296887343813309	-0.01288619682345144	-0.006010428847117094	-0.06084933496065589
-0.001239769370845017	-0.01200458502238066	-0.05689520751199143	-0.1201341600395643
0.001414921331985083	-0.01991497571611693	-0.06169694954022001	-0.2650275921488567
-0.0215543459487696	-0.01992679470646665	-0.06052937404171999	-0.3039583854040055
-0.02749354492606608	-0.02799548854430856	0.07016394660012454	-0.1883997973490473
0.0002651460021736358	-0.08578385291555937	0.09496426696429931	0.04656656637897291
0.013880914905686	-0.07056797768312839	-0.01003961929299509	0.06252033797460124
0.02288126442514518	-0.004747050667565213	-0.0007610687914297648	0.01469294951472679
0.02166538933293476	0.06688241088582278	-0.021633104449199	-0.00600205087583109
0.03022431870044263	0.1080948572357173	-0.07711224182456788	0.105033766965801
0.05483479358313686	0.1033189305304569	-0.1146279616079808	0.09554140636469897
0.03644644420238363	0.0981142400484343	0.005682408952847299	-0.004508123324630692
0.02591805521518072	0.08051459003896332	0.0247867405489914	-0.1010306417974529
0.001334608850810504	0.06650598717170678	0.007735644715031208	-0.1287285889498211
-0.04694947200857385	-0.02588231114349139	0.07285550466589266	-0.02406129613785779
-0.02474532284607261	-0.01611443112538877	0.1373062737273485	0.02471773506817505
0.02624436604786914	-0.0180294989090036	0.07854323257428111	0.05382324892190964
0.05620253709384872	0.005339031914810032	0.03505827716355137	0.07984386673383927
0.03276209198807079	0.036000377620573	-0.01301391366347656	0.03620953606470245
0.0407748950824281	0.06233763073610685	-0.06695870881733371	-0.008473507286500002
0.01912564890503201	0.06638108034637138	-0.04968264917151166	0.05738297951560033
-0.02068352124257493	0.05304464133905083	-0.04119077976633082	0.09182531774453798
0.01999720977389786	0.04891430289765667	-0.07242987548162144	0.01527712126359129
-0.007101784514133794	0.04055840172331507	-0.07591405846585901	-0.0471425868907165
-0.008308304715331942	0.0359968887496454	0.09498331982288459	-0.1186898480739925
-0.03822880749099632	-0.007093593791649536	0.1563163792753841	-0.06423126068164486
-0.05923689639869236	-0.03600066666480756	0.1265981971494088	0.06249263466250236
-0.07181003852798816	-0.01693502230676703	0.001537297370679111	0.06335118891322079
-0.0607770486252296	-0.01304380917090127	-0.02306400684118173	0.04540138118313661
-0.04457849119800891	-0.01490593030017032	-0.02841337566295563	0.01385445278852166
-0.02613684959503544	-0.04149339784481176	-0.0663034569374944	0.0292217569428074
-0.007444710657532312	-0.04574907315652452	0.007961007005085431	0.09081024612876322
0.01978080851519152	-0.02581555211368739	-0.01175959396970844	0.01761136773087803
0.03172935566117472	-0.02350879733781642	0.03676458553796349	0.01644310494150227
0.07044037576182371	-0.006586693736370989	0.008053744488383197	0.04121749175642927
0.05796050847186707	-0.02634899634105315	-0.0538725016937775	-0.004579214868422173
0.03377232280070777	-0.03502164644140711	0.03899018301781859	0.07971179594325209
0.02427069555799768	-0.03411102570995299	0.0251362067633658	0.09583110375281392
0.0169816077720699	-0.0434500252796104	-0.02005070220110425	0.1126701586394996
-0.04003410077138447	-0.02546016657183793	-0.03433902489438258	0.06244697322027055
-0.01237593141536119	-0.009209005663468441	-0.01079159017625106	-0.03911321391198485
0.003351292213928482	0.02394212870253763	-0.02827326274137064	-0.08897423124695263
0.002140471203642706	-0.001577985837622394	-0.01007399172710478	-0.002654352001189
-0.02336443235063648	-0.03818266070395929	0.1377389409205445	0.02455884269713108
0.02415498409637325	0.003754853125958361	0.002539407848748539	0.002467944040732844
0.003705385863960034	0.01034548245805109	-0.0911889387125733	-0.0450994008958685
-0.01645873868265214	0.01059545778456276	-0.002313455925539136	-0.0665510779270542
-0.004794569489533562	0.002167456420265747	0.118974433327773	-0.0214543909430714
0.02538900300430036	-0.02994017177649515	0.1143023446377068	0.01552071639004106
-0.0004318164113988007	-0.01267299076609066	0.1027427895030266	0.01892094054093071
-0.03828244311774071	0.003085910081831659	-0.059203098109157	0.03288653124321378
-0.08054911540779676	-0.01915643619289678	-0.08445378629226065	0.09760755856907607
-0.05604302694513642	-0.02336870236704534	-0.1175613043382198	0.2368833277744207
-0.008666718161270081	-0.02797140423734818	-0.1128153379646234	0.2278921914510382
0.001311800946972369	-0.04708629530527648	0.01400399097693102	0.05196132723165026
0.02663202105057866	-0.03193707789765692	0.05244839186887749	-0.2014244165410115
0.0257951446122168	-0.002909404567342041	0.05123769419664899	-0.2897347100430052
0.02244000612780266	0.02570720906509961	-0.006162744123545212	-0.2329192269895267
-0.01567546100572094	0.001632053855257738	0.004333144423602952	-0.1185621996035242
-0.02570398588363087	-0.002926300550911736	0.07038742729921824	-0.04717135056336878
-0.0008376409439454049	-0.01125178286372725	0.05676817654142114	-0.0333653282170248
0.008296555744522632	-0.0116127109293336	-0.01634634863261054	-0.06593027004746937
-0.04474762698331233	-0.02381015537131684	-0.06222993470832118	-0.04567277312439011
-0.08627203139264281	-0.009220867813656176	-0.02425765048418201	-0.03483929500069845
-0.03403424695657361	0.02277363812309195	0.04403574739827132	-0.02806496599795066
0.01109786083434965	0.02680021236066448	-0.07297176954401466	-0.02638023123334561
0.03116938603445978	-0.007420655244877443	-0.1093130074885574	0.04184146993655154
0.02465451906000454	-0.01653101080444487	-0.08831090348993685	0.02767651405072875
0.03687183828189401	0.01836513145698201	-0.02764393651787505	0.008493622092564686
0.0562773151753136	0.002689058328117457	-0.006399751753395572	0.05835349608794787
0.01229279428047727	-0.04629562041986932	-0.007036633344912082	0.1677722296854741
-0.06076471291998151	-0.07200796907701822	0.007454977486904756	0.257837990205293
-0.02038288757382158	-0.04048163984791004	0.009713259063632561	0.1447247859734881
-0.009178007456401925	0.04719482871311687	0.01691526409045439	-0.09468092687298353
-0.01869427207681101	0.1165791330376031	-0.01513227901183516	-0.1897380443441875
0.02493607495044822	0.114165079723185	-0.06791947024801462	-0.22234578443384
0.02802619366230257	0.07637596774144342	-0.04774009020148266	-0.1734735260481577
0.01439798656983072	0.005858580202182775	0.07349229692086053	-0.04294539636111305
-0.01314847577406433	0.01574213835940778	0.02352577881266479	-0.044088156137513
-0.02674313398164179	0.06856360497407647	-0.08070447595589218	-0.06844893139000187
-0.01220391091347324	0.0598631998897594	-0.0936723075247186	-0.05998092732129218
0.04506575763253039	0.05886061565568527	0.04462080928170292	-0.04164160685051299
0.05125525251633223	0.05025751467739728	0.05424885616909821	0.008710219484587866
0.08231757780823078	0.06797125932492197	-0.02485048778506637	0.01901158636833011
0.07536312356039102	0.04301202605746927	0.01349516080626272	0.0788006028300379
0.02766030620235023	0.0003762360671457205	-0.004871128142542573	0.1314494250482814
-0.003244357757550686	-0.01777349018118654	0.01568422558693164	0.1057368736065287
-0.0319536967549818	-0.03671073161102525	0.07986947613005993	0.06828792001457785
-0.009781523239953321	-0.02625310245072877	0.03569802107934727	0.005330627848275002
-0.08138015269798435	-0.03965880150259562	-0.01219345691560604	-0.03992763252255217
-0.05071531951736134	-0.05672584157701115	0.02333270965153426	-0.02156513660852113
0.00773103531437516	-0.04943101169208729	0.01169266759519923	0.0162420702253393
0.0001375526374282241	-0.04414561992299969	-0.03705461360631544	0.04777674935178759
-0.03309126339823045	-0.06442801541358471	-0.05614023139186344	0.05098770418496568
-0.02219330030646296	-0.05433281329893361	0.03831566764565807	0.0640987255619615
-0.005845570050415294	-0.01694319969666642	0.06346820048148272	0.07588240084644314
-0.0009778092127646428	-0.01360697409422275	0.04751777375573469	0.04448229170226287
0.02328132784671193	-0.04540897652503585	0.1097358042652521	0.01203783678258051
0.01890589653665251	-0.02594163798339207	0.2059170515625785	0.01253517908905533
0.02269632871831262	0.01110750414915268	0.1047427168431619	-0.04344516271105808
0.009691742698378905	0.01344175583427664	0.01978536243578593	-0.04755474740143592
0.02961025143608526	0.007492641151952355	-0.02219835109917781	0.02335241393778154
0.008233960852324515	-0.01013781145530146	-0.02573037699303287	0.04673048894162512
0.004790340809070142	-0.007233046918084113	-0.0539025480849554	0.003111945113807408
0.007104565391358648	0.001598215139270566	-0.07027413955389337	0.04101483554818891
0.005541981909102539	-0.0106587409767068	-0.08442189595494284	0.01971484362143897
-0.00206625372547449	0.0004510610084143526	-0.1092766082663813	0.05205650508084111
0.009602978882910247	-0.008807375043282243	-0.13772190236121	0.1172272705964604
0.01549600910255503	0.01735378888833895	0.008582195228474443	0.09840606474290507
0.003355796036842485	0.02443115392714103	0.1360960998316181	0.02659961065693294
0.001832016344912395	0.005552138964479474	0.06019061810786045	-0.09646256822575458
-0.02719200190639066	-0.01520199857464831	0.05378824328944239	-0.192212336305804
-0.04518661150235847	-0.01657384545996867	0.04346416814523202	-0.1153102075664618
-0.02270168127892155	-0.03511436406828539	-0.07589042723012174	-0.0668216549894573
-0.001793414747543033	-0.02513026324151119	-0.08977397890589998	-0.05840498624701129
0.01918133439335503	-0.005207491215282641	-0.04587113331026742	0.1348178564251017
0.01361551339946618	-0.02084417693031116	-0.01321368738193638	0.2844584311202087
0.008687919208079894	-0.02135901304541107	-0.03061531223820174	0.2818779988348232
0.04060944387174207	-0.009699464267262904	0.1437937793332927	0.0904294449181354
0.05295354166291573	0.009232251695154962	0.08509685298980547	-0.2126154137268451
0.03561418993707472	0.01865050009853908	-0.0487360377434669	-0.3145314796535895
0.02234747316705664	0.01957878572301795	-0.03022808376411308	-0.2072672088030748
0.0172864959332013	0.02549523227811287	-0.0536123911065885	-0.06593225615714467
0.01557949627381698	0.03505721791217716	-0.03528135589646477	-0.02923595605571738
-0.004980372185790413	0.03807528434714295	0.09439186847912225	0.01765602562019113
-0.01568558298354295	0.06140015491430587	-0.01841885489931177	-0.1140306218554786
-0.02803925641635913	0.03145405599399774	-0.001278827745173022	-0.09934184103041421
-0.05642188109838166	-0.04638529211681146	0.0413503823471803	-0.06519581024784807
-0.04852830233710911	-0.05297905064706301	0.005123484779135805	-0.06107043060168826
-0.03139084879469573	-0.06114998778968531	-0.0517948651735548	-0.005257685267257533
-0.07174533039909069	-0.0431210443410785	-0.08168075260779582	-0.00953467730163028
-0.02542330316606389	-0.00833934693517927	-0.08802245395136454	-0.00343877032702634
-0.006762477574306783	0.04602127421314588	-0.1064306420447697	0.06275257093023483
0.006985590893311687	0.08930827123368465	0.07089886279321407	0.08176099447678886
-0.007464426277999445	0.1117840205648885	-0.01454912867013916	0.0963904400928831
-0.008443930636236798	0.1189969188942659	-0.0926451083346638	-0.0368604644978666
0.01114968599442365	0.1137328063715893	0.04262139646730813	-0.09998964362839861
0.02366665920826806	0.09216682580653818	0.006376799001993625	-0.09197505101586435
0.01455920690946758	0.009758779445183569	0.0500923217557144	0.03265829692652604
0.0148929694387332	-0.03523537470693852	0.1964893101227877	0.07139605248769862
0.01627828603679918	-0.03779015917845731	0.09292286572997256	0.09781839177267586
0.01177563183073575	-0.05895818058015687	0.03017871621881133	0.008873299686065423
-0.009556829569909157	-0.06594758531513187	-0.008693884028210705	-0.01063554974797729
0.01564660648185684	-0.04215601089542915	-0.05650550241433309	-0.03380961406087812
0.06060685642205774	-0.03302819202922632	-0.05573169161786636	-0.005617239809404873
0.05816951591029015	-0.03411049373181396	-0.08531356375916493	0.07124771719966613
-0.01717334822195801	-0.0749356471774157	-0.06851573563549442	0.07562034281903628
-0.04858109104069419	-0.05376814209507503	-0.06296514573915336	0.07469961467187509
-0.1096499652825734	-0.04912790644499345	-0.09623720735481506	0.01458561908620473
-0.06857445647374068	-0.02085412888123052	-0.08741262497083653	-0.009268560643883528
0.005366220534790431	0.01369107730539092	-0.0184422685463917	0.003658122558018376
0.01798462255155493	0.02095324762592442	0.1067189489206316	0.02517490539401824
0.002434977667281035	0.02603975735159392	0.07475436056046662	0.03355606303284158
0.01096442924256706	0.02736467452403807	0.09409650520867092	0.03011914334277672
0.01034592274361559	0.009987698730620305	0.10195034034605	0.06123144086430694
-0.002058626741052326	-0.008492721397953687	0.03528233885105529	0.03795466268857306
-0.02475300543934731	-0.0178063029871999	0.008482487598676331	0.02384282145179901
-0.03284850328379037	-0.01563864518679762	0.01984659069987677	0.08235550029784242
0.01364735160725223	0.01078362096349938	-0.006315018610738245	0.1341057931469317
0.04966540212882245	0.01850738093958818	-0.05626090228300369	0.111874411546136
0.02861209896307622	0.02056811165330142	-0.06697848675049288	0.03290721123887605
-0.02103410998523648	0.02789034805287029	-0.07535178909496591	-0.06004433772331397
-0.02803923415303624	0.02098908044806045	-0.04947273142789642	-0.1662226354473215
-0.01649752800953816	0.02504241651201611	0.120464074822672	-0.1435620392245086
-0.02390596276790274	0.03616227002921555	0.1028869795517141	-0.1322500958948795
-0.03476387277502931	0.02514656484516284	0.06617920793018948	-0.1030760700332171
-0.01071877621969932	0.01601918131845742	0.05499389466592021	-0.07505370379398255
0.03128672480287712	-0.02946148833882772	0.04978107785822495	-0.0001069716640167279
0.01968390918554792	-0.07110777646330198	-0.008370973245573392	0.050213322019642
-0.001464488135143312	-0.07545562659008048	-0.08044363955170591	0.04572193776447743
0.008304154189847975	-0.04140545351944382	-0.1193090748020162	0.06021241927620474
0.008291887163036154	-0.03777406600740043	-0.1025892790118912	0.06699723482030334
0.007148857368562689	-0.05314557093817256	0.02818545786819707	0.0429190976002397
0.00972542652601764	-0.01331126519363977	-0.064380415400685	0.06860894892013257
0.02884885700193597	0.03582097737474108	-0.02297785478947671	-0.01761274478470947
0.08150487288632026	0.01459319883011186	0.08902800273491149	-0.05295969712945005
0.1025753082635576	0.009954552590923966	0.01896387369796158	-0.02295241265831301
0.09241857335816349	0.007180029264638932	0.01743563135802874	-0.07273720745682473
0.05817452237725648	0.007777154047176396	0.09436368872859832	-0.02618603747997364
0.02915716768631325	-0.02382855199728708	0.0749533534904743	-0.02505971958547414
0.01385934891043274	-0.02292834114845405	0.00509438263002791	0.005272491031255076
0.008321525558190686	-0.005618007861806026	-0.03782248527687729	0.05143610669884163
-0.05225389818515155	0.009306918185755927	-0.03833006214034818	0.05185620448062512
-0.1358334719480728	0.02154343634272122	-0.01774265426975832	-0.04017765623331889
-0.07952483417110588	0.02246995272621719	0.1035362093631392	-0.02118513949000448
-0.0219368356012343	-0.01998878834258577	0.003017256460094465	0.02387089447467709
-0.005975453737190141	-0.02117433291883528	-0.02247152870255994	0.07814966901580087
-0.01807347835694359	-0.01000403881348116	-0.005678815437960076	0.0001728222900946957
-0.01577928119049306	0.0415225243231738	0.002586721210816383	-0.1234036920952847
-0.02109572570109272	0.04188772555463861	-0.06602193494868588	-0.1152007987628149
-0.02010598745017056	0.03882144390701626	-0.09953660904512847	-0.04149634156482426
-0.01698774301938919	0.04565215269286721	-0.06099970275912181	-0.03204183198469372
-0.02433759675710973	0.06224033593825343	-0.04188939207315269	-0.02172511059535961
0.02369264629459691	0.0925164879561958	-0.03228854602667813	-0.02283448828990947
0.01833040482399103	0.08811590390904628	-0.02337167636613531	0.05840796371732508
-0.01037765934953823	0.05083564770649796	0.00509838588961351	0.09381351702894496
-0.01641338665053777	-0.01527738907490271	0.05049215446804911	0.01886954341927714
-0.001028139681480959	-0.04790318532207301	0.09073590152322221	-0.01866520838930039
0.01464947830768275	-0.09586762433651502	0.06550027440667376	-0.01774992506102344
-0.01201849612533781	-0.1690143280113541	-0.01707856485222273	-0.04467427977644695
-0.02122857843186109	-0.1424788237393597	-0.06323852851939664	-0.05598537208869285
0.009942940764855213	-0.06490918542835221	-0.1297674830078426	-0.00587426361234571
0.02391240646644721	-0.002026856468281319	-0.03326638105106235	0.1302065492563444
0.02891322061711397	0.06600588654324667	0.02000097396342735	0.1590768986847655
0.04569223425957498	0.1011806757714855	0.03562001250959534	0.09308688693443583
-0.00499634946365859	0.1045682016291076	0.01237801088920504	-0.05176753790181129
-0.03136071388475775	0.100265709035324	0.007782509834254025	-0.03722213188581441
-0.04608687121920819	0.06944254760956112	0.009471521058106945	-0.05799888578625399
0.0166338875056987	0.05016661257064232	0.001507317057801496	-0.02652136977392696
0.02676065075175659	0.03127288531478711	0.06446797025697643	-0.008058460355047571
-0.003119287708383168	0.01681702658157369	0.04793426922662054	0.006908327070013822
-0.004384447444061679	0.01500749587291139	0.05703711150905808	0.00828031737556709
0.01485705555611193	-0.006946403890283225	0.07919190384721601	-0.03472257142411995
0.0159662403381078	-0.0289452655290072	0.05333661937395855	-0.01227138206720589
0.00130077870323925	-0.04669387239016108	0.004046455930678221	-0.03756410017264506
0.01594430593924027	-0.05095700131782956	-0.02945992966242757	-0.02700778205647222
0.01813744727641505	-0.04179865074263397	0.01366069583789943	-0.002115910297543004
0.01858750358501354	-0.02124310776374666	-0.02201934729897608	0.01418116718799878
-0.001864844229354491	-0.03520625353688463	-0.0719982898211433	0.06885305233023116
-0.03066997758940932	-0.06812721059051201	-0.1169298117594784	-0.003103201058450029
0.003875166247784899	-0.04658231398256617	-0.01654210078565298	-0.08283779680007497
0.002925598601817633	-0.02227978729256747	0.05468945012813153	-0.004777562187255738
-0.0340963861130163	-0.01715177824861524	-0.05366075120934897	0.07753296544006505
-0.02927183663697354	-0.01276659782611909	-0.04754825708954825	0.1769990289845662
-0.007391178237993515	-0.01065197384056941	0.03890762645299767	0.1070186115458847
-0.00717187621954804	-0.04414509365182963	0.08848096154742012	-0.1113153040424184
0.02875931586791602	-0.05823963866543393	0.04136796384755097	-0.2153641651046971
0.06367574214291505	-0.02866268622928116	-0.005995879805701236	-0.1622480373760247
0.07619506721111677	-0.03080358826995023	-0.01109757760670489	-0.07570661689225781
0.06041733170463498	-0.047210840577725	-0.01606296933106447	-0.04705486598632112
-0.01562946347100536	-0.04967918089184858	-0.008826886887417215	-0.03422789067409931
-0.02418519586715345	-0.07879035933692789	-0.02496176848637169	0.004928634100607407
0.006195918628277506	-0.06064952850488382	-0.02869550651199959	0.002809490081339842
0.003076315810534683	-0.02065338588390494	-0.07640241855327994	-0.01719190926853829
-0.03142183040602335	0.01610944488310447	-0.1465183968072442	0.008825043500486752
-0.03251040535589788	0.07307758367599845	-0.1736991007216758	-0.01509972478694936
0.006454255398795092	0.1342922064308763	-0.1358977423508725	-0.04095539050484359
0.01480727801846975	0.148885845993951	0.3136874779882344	0.04244541510415269
0.007216072102183968	0.1314825026932659	0.245528360911931	0.1632185006038373
-0.06208105847242092	0.07918704647201914	0.09636682806816203	0.1581368683836537
-0.06054834406271311	0.00544681971504306	0.02375174999951692	0.1129251731920625
-0.01003971189259295	-0.01942898937762963	0.02314656275102586	0.1095408879378035
0.04801213940703725	-0.03914006426610789	0.02610733998093907	0.2078980196204237
0.04828832356180685	-0.06089413269940071	-0.09037672056414922	0.3507229913694839
0.004318198764398346	-0.04687492060149329	-0.01800064847020861	0.2250616849739677
0.02697539933982697	-0.02558330778708615	0.0355880375971139	0.03540965055229901
-0.01362116029082346	-0.01625559175453433	0.03976692852402731	-0.2749267720090852
-0.06579024608622902	0.03496313738423251	0.02239705954188681	-0.3923227252535217
-0.08586679099899099	0.0174386083552825	-0.00170554710620032	-0.1723871384083165
-0.05917966382289489	0.03288436839270644	0.007468858289025188	-0.06595344565612038
-0.04238898258386554	0.007183428746950047	0.0003967238715630273	-0.0749762848943073
-0.03248511045846216	0.003929278159377476	-0.1097178394327258	-0.1188296201935525
-0.02501169653426258	-0.01615865206839791	-0.08348726415033374	-0.06517954011969337
-0.01628499268602184	-0.006291990155062294	-0.08684806068251155	-0.05279999885299223
-0.00274367957059911	0.02507591263676431	-0.1065773230973189	-0.03119946411810636
-0.0350236135442638	0.04066642667146705	-0.132228308446022	0.002121732483277835
0.009663550422432931	0.04107627430162537	0.001693906279957418	0.02146714145397903
0.02286920928607841	0.04232315556873784	0.138944117599169	0.03907620306450433
0.0509176826493655	0.02970182232223594	0.1198829676386418	0.07048403568297673
0.06276591588292314	0.0004026547023082032	0.2775830062082705	0.1579875606509075
0.075820924662549	-0.02330751674861006	0.1707064624458462	0.09314552519780665
0.05321792752384777	-0.04702561626642577	0.07186461156966958	0.03208694966421051
0.01622323188657309	-0.04602453729591303	0.01696158436144336	-0.138968053296079
0.03615601448798806	-0.02189744114333966	0.06216752815918127	-0.07983391498636964
-0.001601466137800309	-0.01712158006648179	0.03911703216149359	0.03154905571051367
0.002170274539603906	-0.02958270946738762	-0.07974117226234366	-0.002546257040278975
-0.009800716689154457	-0.03053225332012263	-0.1133553685711153	-0.01626028263351153
-0.009071085431772746	-0.01353342837764234	-0.1074863836284667	0.01854465464327269
-0.03669406241522798	0.00921745563764415	0.002781798810671302	0.02998780522319594
-0.02925488295985167	0.00760539673286714	-0.0559404006493156	0.01765254962277453
-0.01123248324685039	-0.03068595480616408	-0.08947239486550365	-0.02455592717838694
0.003958822762035538	-0.002736885198956552	-0.1057856054268885	-0.05072397266862336
0.01415412773359051	0.03230713719142387	-0.1249204784982569	-0.02842725373683701
0.01432201865656822	0.04949198810482902	-0.07624927071403916	0.03174420463346995
0.01352680860914164	0.07126197573735675	0.1151302737760549	0.09859828331732783
0.01596531868245207	0.07125074052015441	0.1219617396912493	0.09548381087505092
0.01359607259656992	0.04739053374045125	0.05144913450455404	0.00585064700018031
0.01228491171526436	0.03073049891890862	-0.03699317130671918	-0.021638730747565
-0.003016887526724664	0.01695187031151403	-0.005194906506186672	-0.0576079281631099
-0.01091054576267492	0.019719497640224	0.0230430698131544	0.03238376311166792
-0.003700395318566575	0.01232805156064486	0.01659957462026196	0.1296656453351327
0.02080063734077279	0.004992004066862737	0.005697151057525772	0.08023468732824772
0.003823473447349015	-0.01843391409687782	0.005493443469316116	0.01476795026471302
0.03225193764166417	-0.009956184185444115	-0.0378538855262959	-0.06497226207830378
0.03154916215958262	-0.04186629126565636	-0.01017484775881497	-0.09240812209316665
0.00885578736692285	-0.03011942903901974	0.0078442686164554	-0.08060991923733933
0.004347185279857682	-0.03335930600603373	-0.04051131313138923	-0.04845834005175223
-0.06799571721477987	-0.08168941249608463	-0.09077330625279086	-0.06736030446185053
-0.08642097822302236	-0.1148955420050842	-0.1248391221949875	-0.04758092919623193
-0.0492561867663351	-0.09282175378051602	-0.1159533977001684	-0.02977857057990451
0.00500338499104956	-0.03556048256401012	-0.1071910804670266	0.04614119646444433
0.05307981834965839	0.01017915864721267	-0.1054088604730424	0.07136203275362132
0.05116061292960778	0.0003400431511846129	-0.06854237885548835	0.06168995872513642
0.02417198774034223	-0.0003945897752979663	0.0234398437675738	-0.044129851876663
0.02213284127592808	0.03490176242267477	0.07643698581732851	-0.07598223766593167
0.01716604996972685	0.06495058010251371	0.1286217557239061	0.007678132975873071
0.009746779204801262	0.06067153969847815	0.06672518732248134	0.04441245975558666
-0.004878013084694695	0.07292240656908139	0.02919893714839627	0.02461437758102016
-0.03977068247134642	0.01107545801964796	0.07737199637671673	0.03640432130162666
-0.04089884670152807	-0.07128260019604091	0.06396981970436205	0.11577140083055
-0.02536116488781487	-0.06384260005629713	0.02399475320860443	0.1179621676967657
-0.03337544358854894	-0.05608179396553253	0.09625341012547829	0.1337589558154957
-0.02172599015135507	-0.03047123296113889	0.05191404989945805	-0.01506729103738967
0.01520143314714225	0.02564068660365539	-0.0193096512541577	-0.1352624556520004
0.003291919696576678	0.02971643677935552	0.02453845491210643	-0.07111783650481619
0.0276373924324296	0.08801465254197872	-0.01458088036015579	-0.08226433816605663
0.01954768811370157	0.08547757160677028	0.02058724900367162	-0.1155657067147036
0.004528681220676253	0.0844634086705711	0.04383303006972313	-0.08473876630916818
0.01421234610219051	0.06173460852153827	0.1044485782441114	-0.05574426353556217
0.00538786003544761	-0.003384545532137013	0.01751892004229086	-0.06453093728612851
-0.01161983087284548	-0.01539640236650596	0.007353689955242797	-0.04141121955094797
-0.01076732692243672	-0.0006750861982618888	-0.04589073398682983	-0.05156218817903136
-0.04251941889034323	-0.03333424661120359	-0.0319469437015726	-0.02589365586604487
-0.04443639144784749	-0.06056209043858678	-0.0154827506560512	-0.0162217446682461
-0.07626141388946626	-0.07894997015180755	-0.01876839481058168	0.06474454468947576
-0.06100269686569312	-0.04701691190989645	0.004801648744147634	0.1473263055815266
-0.05273782105557755	-0.02226182133292181	0.07037549153208766	0.1817885448369137
-0.001163153808222304	0.01563889006303763	0.06472551413271467	0.08226939024532967
0.03820705344661839	0.03132895664822394	-0.01686975258169497	-0.01795778712899748
0.05939274677744306	0.03582439063849402	-0.04932033112798835	-0.08667717838637209
0.05272963041597631	0.0352789888958541	-0.04066854463994606	-0.009290085365643999
0.02844412956943106	0.02907857604558861	-0.04317464829423691	0.06653434963971441
0.01156112937278153	-0.009214033333885985	-0.05070229509293087	0.1313743735522115
0.006000912290205879	-0.02659394497644571	-0.05111981646186257	-0.03617408456174243
0.007087271687233775	-0.01870726678155532	-0.08827448254357456	-0.1276914512692923
0.0044096824083019	-0.007570575502532601	-0.007632212867189509	-0.2126916236152541
0.02327769242675345	0.02067129761196256	0.02520271637786783	-0.2366779292983414
0.01511853906226694	0.01403622500238174	0.05000471505609897	-0.1276643101547859
0.009736681078052542	-0.01449042937750978	0.03494892054167095	-0.002199402661608927
0.004878064249879355	-0.01862759434390357	-0.003598046057181917	0.1247113105682176
0.003163152534293651	-0.01742017275252629	-0.06163534341673844	0.1304547959782043
-0.01922132028143155	-0.007723620974610336	-0.04837711551031265	0.07853444674718475
0.005458230301025486	-0.02852609975090267	0.0494955323805745	0.03010781334240223
0.02550235600584659	-0.03371701774285653	0.04889410328930843	0.02420189504173874
0.008515630193537077	-0.03025019832149153	0.01457463063212055	0.02778878852871388
-0.007704655034627823	-0.04134844831127475	-0.03067900876913507	0.01065864658488689
0.0255677300411642	-0.02893372774874312	0.04178944243249201	0.0513595318634969
0.05128280225133024	-0.07113056344469769	0.03061912911067659	0.03211958748048304
0.04529300114037169	-0.0744663839527015	0.02527094046136622	0.06753436383499373
0.03823578753792377	-0.06461688778726596	0.08040110647666616	0.0545086741556409
-0.01688346538348421	-0.04369813061114192	0.05050063424041342	-0.02759378711369525
-0.03731328559861823	0.02221260585021605	-0.002092572011269049	-0.08999293552960241
-0.0204149190783947	0.07623222027310926	0.0170322718584324	0.0129676718885634
0.02978579820822772	0.1148161801994215	0.02150502561080229	0.1123206687469762
0.0356373748543838	0.1250616769687423	-0.08542917072549637	0.05544512122579709
0.01450946403360063	0.1372994482821304	-0.1022735086204838	0.001708279901865282
0.0182103974622411	0.1306122164186579	-0.044156712984148	0.0157955650575744
0.01155179132682964	0.09217356109514344	0.02421906423678127	-0.03815568581371209
0.005819401214092514	0.01266236986076229	0.02419387969756948	0.00202642995002923
-0.06614482089579675	-0.0260666314767147	-0.0337396677969866	-0.02132716762947493
-0.07548652963179313	0.001509074925325813	-0.05849573261463707	0.02159291592632544
-0.05136473442531377	-0.02446179702341533	-0.05960746800590605	-0.02841151517780212
-0.02823407559923189	-0.0675270298647338	-0.04916866393145679	-0.01375376592014493
-0.01514485790753385	-0.05049581900651789	-0.08797086351892985	0.004332175520235206
0.00507174162844135	-0.03717945161485389	-0.1197459483511772	-0.06379529918167962
0.004526481909134695	-0.0575084393734452	-0.06002988245638447	-0.08498943314404983
0.006471705559097138	-0.03991287591068701	0.06207858406517133	0.07808126761091717
-0.004434127778644724	-0.009574509004670275	0.007128528139797014	0.2402775797513401
-0.01826844362006239	-0.001128720659695228	0.1687053863770508	0.2189680823998543
0.001952589210575958	0.04216714312564803	0.01130703438045799	-0.03700840954541432
-0.02059710086692784	-0.05498972582669135	-0.03418930714603687	-0.3194635077364469
-0.07508007257455571	-0.05399085119954779	0.03336705303434559	-0.2134954586904507
-0.0145025628337756	-0.01424297089118357	-0.04143126942569671	-0.09901081770320463
0.05332140241744546	0.02580721004167343	-0.03406762026209039	-0.06327552305880102
0.00895850079450761	0.02088243925752143	0.05232870501395083	-0.03336523298332149
0.01558600490962043	-0.04463066727342861	0.1009044628457455	0.003608796581750677
0.02391021433482984	-0.02266998053281645	0.1769375842827837	0.04179823320742572
-0.005684220803007262	-0.009965684807627785	0.1377314516587495	0.0192311418020233
-0.02389086564717323	0.008654859204505849	-0.03072857882087993	-0.003596166201500183
-0.001527961691215014	0.03863722778557056	0.04114918154019012	-0.001441437972760418
0.003290364761186669	0.04741607024996781	0.03154729988825421	0.05302684337794115
0.01810217892985713	0.049830710858559	-0.05544827109818946	0.1283066102517611
-0.01406443007506643	0.06448661739285148	0.04105959320870211	0.1057542274134121
-0.04833076999264188	0.0288953523179067	0.05159685099590362	0.06531506687663929
-0.0287693414940109	-0.03383593414665696	0.02176518321721884	0.1154691594296634
0.01030560467566782	-0.03338596334347258	0.02577712442415935	0.07389184469312582
0.005160492905934114	-0.03194764956806609	0.001749552677301145	0.02463344856616497
-0.04007908084225471	-0.05694996260354097	-0.01839051735096897	-0.1730998593378917
-0.05103313118408503	-0.04822123308925271	-0.05194965928531674	-0.282592240380416
-0.01223914495880365	-0.01647363470675883	-0.004009985201090316	-0.1629140999268687
0.004277381064354878	0.0155158511978009	-0.03522636309755414	-0.0223432022170569
0.02564680626114515	0.03310960855684483	-0.09084301467714054	0.01548736555326609
0.03084897223898907	0.0262109010479495	-0.08259746057396299	0.03002662887626476
0.03683788549450961	-0.03571377750944892	-0.01762985555999933	0.07129764989526999
0.0315473284506207	-0.0425797909924449	-0.01030407149753921	0.08746355937239163
0.0294502536911919	-0.02546314769374558	-0.04014425999533794	0.1066107694855017
0.02142666998599391	0.005335469371106972	-0.04485976245719967	-0.008206922402138854
0.0415849408115616	0.05230219308679043	-0.006947045742210157	-0.04706200820597585
0.04112839820975805	0.1033290742977176	-0.003360599806671334	-0.05743662545492333
0.008497639803842478	0.07817693664463798	0.03781305972336244	-0.06464500414989716
-0.0175603106493015	0.02688297795577979	0.1002657318644836	0.03403148656201234
-0.008530863588542411	0.01139781155593338	0.03082121514542182	0.05930404949816123
-0.01657903164249761	0.04688151391090062	-0.08625217428287352	0.01236432016208594
-0.03420151688618479	0.01970327060684728	-0.07455016053623356	0.09665738458873159
-0.01388345018726129	0.0305681818231024	0.03013584763811049	0.2445103254025543
0.01747408999314471	0.0286718465047513	-0.03860409919613348	0.2368219710078394
0.0761182050986698	0.05056908055886887	-0.05626069439827846	0.1617438443597168
0.06881548935766152	0.0255497910728071	-0.04756948523541529	-0.06022469510228336
0.04459810223438253	-0.03776505012567356	-0.02768237683407756	-0.2266153760686509
0.02831445508743557	-0.09862830999513986	0.08740203321727891	-0.3047698590480517
0.02791054008757663	-0.04354831633168724	-0.001800472571134141	-0.1717377129575642
0.02892871173804084	-0.03669572038523933	-0.03569833502882138	-0.10888158434547
0.02573505221720801	-0.03050787912798597	-0.08273200676726365	-0.04024329027612653
-0.02297395432583678	0.002603822920906748	-0.08290305016043219	0.004848901088331227
-0.04441760883618182	0.006898080084252311	-0.02473649047591384	0.0181478762420931
-0.03580420812188022	0.0009290265888329894	0.1192195104996494	0.03227775265749759
-0.04175632488634068	-0.01957445894956987	0.001360648343066156	-0.001837309560273817
-0.03221516681201342	-0.01852130661122995	0.02443374283594958	0.03602697892900382
0.01929213475958903	-0.04314857512591346	-0.02431907596135498	0.03781097724215439
0.01821643545650793	-0.03645110217280702	-0.05257572857413409	-0.004577026231966678
-0.009225164687199167	0.007629093768670294	0.02474861632575018	-0.04046572361363451
-0.02023163611069054	0.003811718768010801	0.09845074826151905	-0.01076714417192788
-0.0145407989046492	-0.01070938411806025	0.1625762207027907	0.04560590241894657
0.007316382535717023	0.006778310812333247	0.04418148787866506	0.1064282768451689
0.01428752425745879	-0.006462697990962424	-0.04064285885633322	0.1181593640006269
0.04564085843672685	-0.03298494106101031	0.02246054934534721	0.0423687569726472
0.003737703578831721	-0.09207821525156827	0.02131225985393332	-0.1122713461770772
-0.04445310355377824	-0.09301605351891423	-0.01688365376245664	-0.129274417870804
-0.06109461978131941	-0.06369322621130201	-0.07001025395553087	-0.0925648646753132
-0.05558407698127218	-0.05181110563117622	0.01140737037102958	-0.05682024803728506
-0.04033228040898029	-0.01366145620848228	-0.01777341822095475	-0.04703027171723643
-0.02457616622626125	0.0267679553904671	-0.0625902404265487	-0.007696987632710981
0.007207832338350611	0.02892835419962177	-0.07336321430044888	0.05620423392827682
-0.008609272597568961	0.03953459597469188	-0.08729110178227859	0.06821284014885057
-0.006918344668829066	0.04320656583587544	-0.003520638283651506	-0.01637156063626803
-0.007327760060004117	0.03014945124832584	-0.004631384795458862	-0.01065132823027833
-0.0001507022897006573	0.01266485158747116	-0.07390196508374265	-0.02274615990007107
-0.001437928338018703	-0.06563836288013195	-0.07525564058380842	-0.02736879521099276
0.02141577868774826	-0.09406911158516748	0.2615203324403131	-0.01993704388211085
0.0132239133036946	-0.1187967558095035	0.118891579606102	0.03833716921537902
0.02183411729410043	-0.07418041735911064	0.1319187160617175	0.07569870455535614
0.004790505667498958	-0.006076869716438265	0.1547502529092396	0.1553631775176342
-0.006729623695161962	0.05458101523199797	0.0142575090792661	0.255129751692578
0.02460342627265476	0.0821175502167677	-0.07133716730429507	-0.08414942318428367
0.0112633307644981	0.1005770061591347	0.02666134919128765	-0.073318453369521
0.0207714778254797	0.1539374414675148	-0.03387188264234384	-0.007649870895169306
-0.03750682123970613	0.1528636315850914	-0.07372215634471314	0.06990256825881513
-0.02040215156509863	0.1432187171512822	-0.02810994500107118	0.1115589544122043
-0.01499493903970332	0.06992607111383672	0.04519271855029709	0.05647255372382427
-0.002066550577328834	0.03164733023095014	0.06691267778704441	-0.01529654337580402
-0.008457050075979576	0.03175400362149569	0.005203494367466208	-0.1151612354303651
-0.04396299342736269	0.0264875713130986	0.005100921928992771	-0.1125931871442081
-0.05063036768884492	0.040160995215255	0.03340821382227104	-0.03702284650653775
-0.006559116896148177	0.05656899924360388	0.02538801476236898	-0.01611281846589374
0.02028270589162644	0.04437019701706883	-0.04815817513888845	-0.03381428836815376
-0.02182666918587946	0.006411583540560193	-0.07762765437514917	-0.02433269332428133
-0.0349435271054024	-0.01474147040042532	-0.058201247547432	-0.02301487267550644
0.02043859664062177	-0.03808846035871717	-0.04682471119085022	0.0429445460370622
0.01375382497185779	-0.04065069308834684	-0.01132347388072919	0.06605927696323727
-0.01581135316209653	-0.05734110304416697	0.06604291725300106	0.07848275949902281
-0.03762209176512528	-0.05445171225990098	0.1054501604343159	-0.004824216810314414
-0.03328219843768618	-0.05911361525594716	0.03488261321716671	-0.1287867018122278
-0.005792444068652383	-0.03561452093215848	-0.05753549025480478	-0.1001511051562878
0.0557576887575375	-0.01698039838078687	-0.06229316985331149	0.01259945125804374
0.06948462244422887	-0.02292590147690144	-0.1130498562760145	-0.007078143662371511
0.04103847315468884	-0.03910513604324006	-0.07475131883153482	0.05420309152069364
0.0257648030821981	-0.0436652821320065	-0.03131659120690271	0.1105200734327668
0.037541576227401	-0.03519090250990545	-0.08040818036558139	0.07790457991848654
0.0459852087640325	-0.03565539717078203	-0.1275912912667977	-0.02601841297140906
0.02912649525962937	-0.003251419192280552	0.006305421704552054	-0.08116103624281061
0.02162664186255425	0.006862923661236908	0.09706654308092237	-0.1498630315833406
0.004779612788273711	0.01785166914217894	0.03583149074467262	-0.07083250326003147
-0.06221127744182849	-0.01658848096441613	-0.03994893174816191	-0.04058259039585263
0.00378975081874169	0.0004536667109381458	-0.005575418070851129	0.05135121511060901
0.03801767633890113	-0.001019859136307475	0.04862041839096306	-0.03410863957956162
0.07144712242980721	0.009768793380688003	-0.02942510554497513	0.02758449525244355
0.03153988269289651	0.02415257047567038	-0.006598624660324432	0.02632590957007169
-0.07232542906520108	0.01017609289567368	0.08316721851757934	0.0661704364238116
-0.07145247629556858	-0.003654891007129592	0.1394102082421897	0.05697151187956892
0.0005220714700712172	-0.02027895780197159	0.05856060255219567	0.08670262075365157
0.0361684542339285	-0.03282434844361447	-0.02469029097521994	0.07871414289012144
-0.01941995076725615	0.02110598321307796	0.00622984963838531	0.03898288989455257
-0.02248961760186963	0.01658549172945499	0.01065281559836136	0.006377867554459772
-0.01335814953949121	-0.0005352934455269827	-0.04644874767903191	-0.02264237682802122
-0.02670920489963977	-0.01953325347686851	-0.08583505655355533	-0.03884750194198403
-0.02062976697264561	-0.04170158964205336	-0.06793939241420238	-0.04157471948607971
-0.04576139796332464	-0.02970231907580901	-0.09286906991830406	-0.08340477715092776
0.006616159177055536	-0.01547882149580947	-0.03882329526109447	-0.06604037995607517
0.03024469261704602	-0.009532079199441443	0.1096965336891555	0.01083459591973223
0.0335615649556021	0.01567191147280091	0.1363734409732291	0.07783840903814404
0.03923510388523142	-0.004737165944166472	0.05721043243696562	0.1378056904418273
0.03760394409871314	-0.1066950596099489	0.008911391231554315	0.1183856252910852
0.006957576231259693	-0.1073940107461396	-0.02201445459168021	0.1038334673492794
0.001671984107729373	-0.08097913711287698	-0.01539898873887676	0.1152723079720405
0.01087542844797807	0.008299054663182814	-0.003633401778733856	0.05500680785975344
-0.003349681225495397	0.04788509125044908	0.01743215233100846	-0.01426885447665881
0.03071948214843472	0.09252083710980832	0.009106629664237229	-0.2010767092137165
0.03031670594354149	0.1087756084463868	0.01563223244591691	-0.2147945744039763
0.01503615344226662	0.1299082776565454	-0.01117777797416653	-0.1235755640683688
0.02272839205163875	0.1223876428651509	0.01798987922563255	-0.03968864404440605
0.03995683413288181	0.08444671836488432	0.01813949594565789	-0.004343289914688886
0.04776479855793642	0.04853251718451913	0.003931719760968704	-0.09526502379008592
-0.008522712528461566	0.01553930846970639	-0.09087257940343382	-0.1576810608623552
-0.09134950230477573	0.001830914885181946	-0.1386646448749991	-0.06373857885069464
-0.06518017757610477	-0.02242972843719373	-0.1403008769753095	-0.05293667859676857
-0.056433582117363	-0.05696264312944851	-0.1096895085635625	-0.1037013325748341
-0.01806793426062909	-0.05973459478240689	0.01276957303392752	-0.04354033814053868
-0.0258444566079684	-0.05656126809481568	0.1606088505377495	0.03469952911984894
-0.04765637448615473	-0.06546649415471269	0.1977524658671095	0.05632408853257025
-0.03429353466242716	-0.05044698140536362	0.1540006454587123	0.06793971994089572
-0.01459383208517219	-0.06638103164491756	-0.02134726166763923	0.005735937924741599
-0.00306595093718935	-0.0406190889927031	-0.05111757338089436	-0.03744396417294962
-0.01023095597664394	0.02894590735599475	-0.05296915606474478	-0.05032046839480001
-0.01560144826372214	0.02092426932112364	0.004799887668559434	0.02471662180470675
0.0003989367930162351	0.02096995950102268	0.02864676064985029	0.02777342283324695
0.01791218104871986	0.05195974114153069	0.04817301989393354	0.04149833242013785
-0.002351361111419178	0.04924424668621585	0.02514763134059528	0.1228020091996465
0.003400836816158059	0.03118497419083853	0.07355612021373004	0.1640035634485137
0.03441264270216381	0.01702829517081035	0.0290403727477803	0.07995762824063223
0.02853385070080334	0.01223872546115497	0.007526850242925471	0.00825630654766943
0.01230312962305172	0.006162242783590268	-0.0286703272336255	-0.04856715901065774
-0.01177892533748663	0.002545213100432997	0.01776372947614493	0.03057644895324923
-0.01216494197575614	-0.007032657631417765	-0.0406694433359073	0.07395777785685057
0.03077251712810382	-0.01451463352613269	-0.02764922914225297	-0.05303672687919479
0.009474359267016194	-0.02049956313499326	-0.04876055116838975	-0.07745338046888561
-0.03925662119340285	-0.0132294376368581	-0.03217013478983568	-0.007238545817215751
-0.01392415464797772	0.008917588782967136	-0.01066638936133525	-0.03315014222265002
0.0009991791962008483	-0.01752044884986394	0.01232646989191024	-0.001668232796971718
-0.004699538666880954	-0.07268937253227187	0.06211667384596924	0.01423101528131879
0.008606494237171129	-0.05925284515919964	-0.02010358080537926	0.01236705501990615
0.02731206807632881	-0.03973896731170442	-0.08986091104450979	-0.05944008279682345
0.03271366633938008	-0.03937772427717491	-0.07504818769891379	0.003253664645703087
0.0428619607705626	-0.02782855894205599	-0.08022803802438851	0.03688164685532264
0.05062485335580764	-0.04150342795958099	-0.1084464292175679	0.03610236360589417
0.05659127375300813	-0.009955030504730875	-0.1374284448682855	0.004519315096752383
0.06660849179401619	0.08236809547067488	-0.1373238578578051	-0.00165479709175981
0.01221356902750531	0.1108928402607868	-0.06796468468203545	0.02632005538220468
0.01638695859661145	0.1014426057186427	0.08902473004450175	0.1167665611247772
0.03165918779531438	0.087674746664211	0.4648675926110065	0.1936406766504769
-0.06212152132069509	0.09090806145975236	0.2062836694928895	0.1921603348014873
-0.09472121353547293	0.0836781650742776	0.07646729444930614	0.006747659488954675
-0.06306869726145467	0.05817430233860951	0.09821117835158903	-0.02672121105599723
-0.03680594130164064	0.01559853219697406	0.02536751662723284	-0.04496959672430176
0.005125009735165722	0.005629237327191079	-0.04812908988649187	0.01078884287645734
0.008939589121302185	-0.01234433653576049	-0.06682047417162128	-0.0309306790211519
0.009420778035656567	-0.03970314623820365	-0.01988083878043937	0.003378171851771101
-0.04801083991731347	-0.04136607735894603	-0.03291788646925613	-0.02874017697816222
-0.03522005388660945	-0.05014654873406428	-0.02577752944151515	0.03549985994917926
-0.02911880938187821	-0.05168491772966242	-0.0393547266901231	0.04426805976292209
0.006513000468084692	-0.04295402143528631	-0.06663125355456882	0.02250709627702547
0.01988878640631971	-0.03741641111910571	0.04912328752543159	-0.03292809693953708
0.02896696798550176	-0.01826833497957476	0.02958855441771716	-0.02797594202967142
-0.002795161851804738	-0.0156763604094537	-0.04067976920948869	-0.01323727059401994
-0.00307900007772645	-0.04556091113664563	-0.1207312823638579	-0.05823403043200502
0.03144196808764532	-0.05199738580084318	-0.1683000347611306	-0.1309487736686846
0.03876106567875909	-0.03296254211162191	-0.02839318858282669	-0.0523968707230698
-0.0201027175443627	-0.0280064569863116	0.08386303852234982	0.03628996397237198
-0.04147216711937431	-0.01631433707843021	0.0515697199325507	0.06278592579543799
-0.02097670200215911	0.004885161288623381	0.008264637917128432	0.06935663463188334
0.007827783346689619	0.01109204212783078	0.002590069174148418	-0.1216980884546051
0.01229049938873077	-0.02915169298113345	-0.01307404376845063	-0.1565178025208304
0.003812703239182412	-0.02694206760735413	0.02034270928852561	-0.1221079705383821
0.03518952675920946	-0.004716467249174357	0.01637727233885828	-0.1696973287392141
0.01591729114918951	-0.004860545982743521	0.05374276055028994	0.04805411377624521
-0.002041812140661859	0.01303764686142346	-0.04520426049836918	0.1171474302996154
-0.01315034149591997	0.04098489634721711	-0.07159119099574114	0.05383231525917181
-0.01673583768781257	0.03555128525234215	-0.09257483566509039	-0.1009464322794732
0.004213857220700815	0.04282234380424561	-0.06160594411448886	-0.1814561099945179
-0.03071500836691971	0.02842993485734593	-0.07289162947184932	-0.2106665812014043
-0.02059560716808436	0.03339861397868353	0.0371914340029901	-0.0739415559166083
-0.01423016718050396	0.05265031101387627	0.2054186114210351	0.0353704625290312
0.01837450889651195	0.02204534705382799	0.1792601211394883	0.08947516013775667
0.041065119567975	0.006722635392690812	0.05405382068301326	0.0252347696171187
0.0516072614457404	-0.01034410226034126	0.0544383823014725	-0.03895055681302756
0.009480207716734707	-0.02050729780052314	-0.00541865565971015	-0.06155131802923314
-0.004100153224654539	-0.01554375198292412	-0.05137480425241289	-0.02059089090483704
-0.02279762610864007	-0.008498495073445756	-0.1053292682247236	0.004020340923048462
-0.0296806938133904	-0.01122905122393591	-0.129539633316224	0.01819477659593826
0.007591032712453984	-0.04849240812742994	-0.0284316198945789	0.1307420037624813
0.009319280400002773	-0.09958687947580025	-0.05281717964529001	0.1481836826875645
-0.02583388272714961	-0.06946449966416696	0.06429605795404827	0.1662321695212469
-0.05921739172708926	-0.04281984588126334	0.06989470114144736	0.1942190577780726
-0.03897059200570047	-0.005879152923935067	-0.02087454603772668	0.1153379270879401
-0.01473135769542919	0.01902785638722174	0.01026146862857155	0.06880764750153574
0.0002875701926438926	0.06003133962553572	0.1112641859490097	-0.1258500609807159
-0.02603180498141665	0.08132872075771951	0.09894502133832565	-0.2003715823140848
-0.02634498980823573	0.09334551940999057	-0.04149589024484529	-0.1230628040678621
-0.07157546049325422	0.08816182906651177	-0.07256104210395585	0.07787462243320611
-0.05003285360914179	0.05729596384956452	-0.07728904197632301	0.1330284464503176
-0.01824453526382969	0.004808531422212805	-0.05699193996825716	0.1341477489994974
0.02852877408468237	-0.02346084721874406	-0.06251430688228098	0.0444193347312639
0.05712105059765563	-0.007606470676520426	0.001230066683766978	-0.06808938335419941
0.05318844580738932	-0.01089638490629343	0.0775161794760271	-0.06812615244231297
0.01170626055658224	-0.0480000674405062	0.06870480340478366	-0.04078673854258382
1.831860771365458e-05	-0.03999769108734515	0.1121915496471279	0.02919923400493923
-0.004312967406351485	-0.06806933946558633	0.002465234865242545	0.04555129446457239
0.02896974188471242	-0.06019837484554428	-0.0801186912375265	-0.008354440979765133
0.06306861038859057	-0.03257519587850411	-0.0714139455550992	-0.03334350891497088
0.05787104445600603	-0.0224612715096713	-0.04959964695058688	0.06840833922565208
0.08903891492846364	0.02161524463335833	0.04611925403459331	0.09114756291550201
0.05930983100739836	0.001345016610231638	-0.03442768350943452	0.06814787639793184
0.004553428230776087	-0.1346705389759559	-0.06160126237480659	-0.03145656553104801
-0.02165765604055427	-0.125004281438201	-0.05001235873703879	-0.1215406190573393
-0.03030964648655739	-0.08466916829266376	-0.04814110797801463	-0.1280793055478666
-0.02053734870956457	-0.03904891450422277	0.001820608486791256	-0.09605225850495268
0.0040591608528721	0.04294584376644563	-0.0283398856100348	-0.07067654948787389
-0.01250588741132498	0.08569421970092399	-0.04401210136777808	0.0113576922009572
-0.03153489062661044	0.1047908644448862	0.1028344539795122	0.1756793015015994
-0.02248607197082123	0.1321922449075839	0.1187573612183718	0.1127384617323566
0.01352940193232189	0.1704843714290268	0.08714494757854779	0.03410674787580775
0.03365814857135693	0.1201104524515227	0.02942444084749261	-0.0770224678063889
-0.006437339729574208	0.07519256018819499	0.06496557745836462	-0.1381311971430891
0.01842255102379368	0.04133909148211573	0.1040716177202089	-0.05872158055191544
0.03532732589794645	0.01107089111793204	0.07055891877384808	0.003491655015105793
0.02368304566747496	0.0231322919098907	-0.04732603790796264	0.1465674678759788
0.002210580502631738	0.009842778895737314	0.009505953633505124	0.3018787523946041
0.02699332709287207	0.004158853866082985	-0.06975214650657591	0.1100488740517987
0.0317913809422067	0.006549365929413119	-0.08224721697562008	-0.1197708217599924
0.02531950040281934	0.02935510164946103	-0.05299761741542509	-0.268342603423027
-0.05892312367659285	0.003462270736157721	0.05726983719691783	-0.09266688301657455
-0.0540530843009484	-0.02285455454263343	-0.03885441351613576	0.05945923880137381
-0.009311047572129106	-0.01216715278402985	0.09775163958542235	0.1147857307618947
-0.006291146529835882	-0.01728643335665425	0.1092219262985733	0.06105783503789757
0.01363474916119248	-0.01251871176395969	0.03706118846781619	0.008345409637203162
0.004454407176456392	-0.02077608347604526	-0.08632628760123126	-0.03908646325050941
-0.009220720211827613	-0.03831070872968682	-0.03650469937212116	-0.1377191087604273
-0.02997696073062325	-0.04551819155086997	-0.04808539991400543	-0.1155012326233632
-0.01205248877389748	-0.01698665734782005	-0.04260137396846491	-0.05839021501523749
-0.01290320315858632	-0.04257327160181931	-0.02549663726574748	-0.003062024719015247
0.00402519571103405	-0.05114549829108678	-0.01632024823234941	-0.0153816185035806
0.01822310417469519	-0.0522761726969286	0.004420085263090608	-0.02390024420686193
-0.003974144712713859	-0.04924699503395728	0.03567198839912505	0.009420133645724769
0.009311907664360198	-0.03816075016909524	0.006257652770830998	0.04438870670798215
0.0002300945739879971	-0.03707109509793024	0.01778816985648176	0.02836073232493234
-0.002397282347532026	-0.03150328904472653	-0.0386134841981589	-0.03667395974235443
-0.006010890515591082	-0.03723375795744936	0.01830571377596732	0.07661756774855501
0.02110124153216917	-0.01949595078991707	-0.01382104049161311	0.1078210421000847
0.00734025186614593	0.0002227727098688909	-0.08182657207109068	0.05020785558051193
0.01674784575277308	-0.02641248398550321	-0.05723060991500372	-0.02256893286787033
0.03159926941621402	-0.01639759947053597	-0.04977036774597045	-0.05674083941784769
-0.01826469386581917	0.0212730748101216	-0.03048349798722505	-0.06636966990333948
-0.01787022638820691	0.04910665971615519	-0.04223496828135379	-0.006848142029294148
-0.02034379462878057	0.0397579327756225	-0.05775594192749983	0.05263572870228729
-0.01825889169071783	0.02101761798615109	-0.1043490105852712	0.00769190379493539
-0.01182548845065634	0.02338830904175623	-0.1178513161485065	0.006709017504556313
-0.01811829905530394	0.02321772706027665	-0.0755661210664329	-0.01039382593192689
-0.0362310447889676	0.007151390664394767	-0.01803974645386003	0.0009446840795799558
-0.03145097240610822	0.005151209736698362	0.1286406080512376	-0.01075386601582034
0.01066080451914689	0.01368297956039236	0.1611924107235882	0.02274659809157875
-0.04471654193683668	0.01554703597001357	0.05167721037703093	0.05047795889662694
-0.05349662133413213	-0.000136362648477855	0.06718311298512239	0.01702444567929642
-0.01167565751256604	-0.003078985379781877	0.07101224101591587	-0.02333732547413533
-0.02796947968465313	-0.03398158372983985	-0.06754455011486672	-0.09663347774721651
0.01665151532690969	-0.03033148264137596	-0.07348896652453257	-0.1554833326167237
-0.005738651338329868	-0.0231793019548197	-0.001132382860496466	-0.06681678500854345
-0.03838314067184645	-0.03449638988689926	0.03579492526972203	-0.0162148619937084
-0.03617418547365497	-0.02974265293992054	0.1060928776387158	0.03685397871031319
-0.004787188542025359	-0.003178406618247507	0.1581443850288735	0.05119838365758023
0.0001338422371115536	0.01796073334659095	0.1231868922155094	0.06918283353367677
0.02140919231022032	0.01524817271646221	0.05544134704040424	0.131248417363629
0.006164879447539207	0.02460637529025545	0.06033311816793027	0.1485947045128216
-0.00105091379112105	0.04731576485122165	0.1007658381414253	0.1077155872621604
0.03473311335079991	0.07639762738527085	-0.003463403718730874	-0.07898241920582669
0.02596221044660893	0.06148602298557018	-0.08887609513736036	-0.1460123371865722
0.03176969801034194	-0.05889106506330314	-0.1341292884230865	-0.1214201066261477
0.07764317868162192	-0.1560595295852195	-0.1167540441115983	-0.003135630586337292
0.09672996418686437	-0.1309422644789405	-0.09919737496285259	0.02590159343661299
0.006411762016435376	-0.07131383921906946	-0.001729032954907132	0.02129310718620691
-0.02272974090071002	-0.04862293507001558	0.2612756357456461	0.0260879435193723
-0.03448910820685309	0.02781074408615599	0.1627865101288873	0.003752211793918728
-0.008122925934076253	0.1003949124478792	0.04330937456167063	0.06635812795422406
-0.06204770957345625	0.1257231811533232	-0.04165389288812571	0.07025949072276888
-0.03442194747690195	0.1261546915369586	-0.05556523707996787	-0.01082943159879608
0.01468277209992499	0.1185992420379002	-0.06755981936956805	-0.09306679189947564
0.02117124186149984	0.08215840105822095	-0.1128828816516517	-0.09027295145103094
-0.01801550340902651	0.07018029568683674	-0.09141147628019693	-0.03056572908795126
-0.03296370931579314	0.03209166365402293	-0.08732597611141207	-0.06340355828044372
0.002708830410120554	-0.04042963014806079	-0.0286089917524052	-0.07673103758619537
0.03087180913850377	-0.04555273935922254	0.01855996078563095	-0.02014435044575135
0.03888161407273753	-0.04336032374051694	0.02902515452595494	0.01916542059546967
0.02534932923598291	-0.04284747158968448	0.04880133781347397	0.03583289196400969
0.006737890812799407	-0.04656597565849892	0.1058145231080851	-0.005998108766810133
-0.01311810052336775	-0.02649647522213497	0.005566929503013839	-0.02704692880863771
-0.03650413158864216	-0.00544858727611777	-0.05975449003530396	-0.0001425491700845659
-0.02236613558790084	0.04467888105994733	-0.04701017745604131	0.0225378958492296
0.01764835298760914	0.02783905309885814	-0.04055443385390183	-0.01415021626059668
0.01201370558321464	0.002447755572633328	-0.06919843098644948	0.07783251569306729
0.01287334595120857	-0.02338402996044298	-0.0624711304945716	0.1760402312565302
0.03984107783193373	-0.003453847853088065	-0.0467519962550373	0.2126720242143712
0.04150374189486445	0.004278600119370568	0.009743338077385904	0.07871579096812581
0.006084460573451501	0.004126671639757083	-0.0417311251946508	-0.112582668184007
0.002600075453763802	-0.007508321247489749	-0.07196108947376381	-0.1792048486547968
-0.01321366069908309	-0.01157164402092451	-0.07096294259062137	0.05190230768552277
-0.009777241237386453	0.02046614024057413	-0.1042905047653499	0.1390351554915444
0.004464452414652409	0.007703934588431004	-0.04497429412574485	0.0002642464050711399
0.02381880602986367	-0.02449617910948786	0.01348688681883467	-0.1998527492510795
0.05004657677343093	-0.02907450361856758	0.007620745194473233	-0.2590187917546359
0.04396750694138808	-0.01551857459122435	0.06556069069313769	-0.1219161235103799
0.03430368608988572	-0.0107880989240938	0.08868763703135808	-0.00129751516719278
0.03080011093879147	0.02358549040709492	0.09738778345791674	0.04081016137742394
0.005637626144257607	0.02565368956138834	0.1964910707331178	0.07490237976989353
-0.0114851502679803	0.006425443205306632	0.1360189759366862	0.05704982550308518
-0.02405520581907331	0.003683343831884494	0.08446470868119267	0.07038723064024031
-0.01339448659176679	-0.001789635578829835	0.05147822505698049	0.03955304129926109
0.02468888912358127	0.01268461990015102	0.04000686316309606	0.03191199697967771
0.05005056869196374	0.01083581868202501	-0.01129512762953166	0.002687126174754169
0.03500555179238542	-0.008490646804536619	-0.04268717528183747	0.02783459159690013
0.01767645517966537	-0.02202915355112235	-0.05878729463624697	0.03021080379549267
0.02034820146727998	-0.01333551315516879	-0.04859966009018512	0.1365781511906568
0.02128590016012847	-0.03028925867825214	-0.04489418499895701	0.07755382196413223
0.02216789819539649	-0.03575145215726643	-0.07598413069518556	0.02435854951444702
0.0001759412782659252	-0.004550482494848954	-0.07293313753935353	-0.04715584472818421
-0.08910099852768064	-0.04281296829210887	-0.01754524366108691	-0.1333548509063651
-0.07142310338908631	-0.07280097417345233	0.03280414507500354	-0.1291381650842281
-0.08793301163523724	-0.06527529263552509	0.02620038012198003	0.01680102983272047
-0.07608860560640775	-0.01334749627115816	0.02746965236848157	0.1104321193690034
-0.05676104046302038	0.02104238209259873	0.02967235710457677	0.1171933877939012
-0.01440386302750952	0.04415458866927265	-0.00591068119668123	0.06010431271013171
0.01788915140069298	0.07393003414292226	-0.005517872615388353	-0.01471715598717933
0.03494602729670523	0.1101112592799614	-0.05767512560326874	-0.07537009699573025
-0.01914973164320076	0.1236188200875437	-0.055566634493809	-0.02453695676062627
-0.09473796394886141	0.08203284151397353	-0.02389095294152965	-0.1274584814116926
-0.1198047206062901	0.0366086713825641	0.003235111891529423	-0.2383698845847803
-0.04794786216641568	-0.02587720643004907	-0.02164929559103494	-0.2089265856540833
-0.006626157992800261	-0.0457233650747867	-0.06010007138065714	-0.03742810138274032
0.03325032148915414	-0.03776672236721568	-0.02313877702097914	0.02969548699514656
0.04461013901221462	-0.05014756744449306	0.1019352208504654	0.04155636868529813
0.0257747472883249	-0.04587922484285911	-0.03383338880804049	0.05522663769355946
0.03173413270888442	-0.04627007591894931	-0.08762792650549975	0.04342256686335668
-0.006078245567702859	-0.04038997771962741	-0.08614049074502275	0.006032915832771227
-0.05115717629923711	-0.03618966816581434	-0.04675273985368773	0.03495370325506876
-0.02684687314682055	-0.04316164543236146	-0.1159052736528742	0.01224570193814407
-0.01782066892605462	-0.03656389350197174	-0.01528569657121744	0.008832459069906779
0.01049663193808867	0.009118415277238974	-0.006388530878359162	0.0175670816999729
0.03549191899332905	0.01311665968740511	0.1195896184812526	0.06159564709523224
0.0321675584183968	0.01401528468039331	0.3013706857167934	0.1131174660227547
0.05229044357267067	0.01671978493443977	0.3566321972837508	0.1634085265718501
0.01662375116328843	0.001246959285856305	0.262633387070872	0.1413667216686245
0.01611817860604401	0.001579136721273673	0.06613552613305414	0.09326361035811936
0.02263894989074391	-0.03660028273922324	-0.008808141919373329	0.005065616722360795
0.01988300490218354	-0.06327358545665542	-0.1481265219756714	0.006114734280565595
-0.03226916400516524	-0.06452809695535584	-0.1366107808240123	-0.01780711002828118
-0.08069328016224063	-0.04524911057214097	-0.1603142035479446	-0.03348971826763351
-0.03984100867818039	-0.08813207774911096	-0.2569893063295862	-0.02445968478087431
0.01671508063142122	-0.03890184863846643	-0.1859783455328064	0.02445617460268685
0.005281895568604282	-0.02117610360777442	-0.1054840005261899	-0.04833128514203019
-0.01061646566279986	0.0007112372084665734	0.2077061098237842	-0.1149456192380152
0.01138696338740207	0.02436133283171405	0.1241321825012251	-0.06818638942167275
0.01682339253019349	0.04949689076450067	0.3228674348313305	0.08615474795616039
0.02311689445153779	0.08036989383038165	0.4705193142153322	0.09965319476560322
0.01335245966394743	0.05820210941491596	0.1101254011095934	0.02333666220069681
0.02416226768111731	0.05071442444458438	-0.2209781520918585	-0.1018923666240461
0.008877641334498608	0.05407543151871164	-0.2373246123824942	0.001234142193569967
-0.03100911756639632	0.04394088465954456	-0.01572545498480837	0.09774730764066034
-0.03054281720317076	0.02608499236680343	-0.03766568024138746	0.05212144156231157
-0.03252104460309398	0.0314347672470834	-0.1006362788497847	-0.03225881543875889
0.009566469958281242	0.04873861956065128	0.05944992278672349	-0.04671594794193893
0.003385452847488263	0.04244724219547681	0.08081460998752918	-0.03054401660653986
0.001838365026895324	0.02783474135074541	0.1066111649512856	-0.01521670546974905
0.05014281832897959	-0.001181013534215992	0.06821698458541547	-0.0550134107194314
0.06060828345147988	0.004881066780111212	0.04111908488815392	-0.04672239932079299
0.04392717926871224	0.03364360230173186	0.0585633232723962	-0.04925437505186637
0.04845841251073347	0.03078542021627572	-0.02274215500900382	-0.0493018407723264
0.06349285302765903	0.0310670611342352	-0.1169195436029252	-0.01938200278060914
0.05224744963903863	-0.001857401257301719	-0.01767672700384988	0.02358095874189032
-0.002801444380742601	-0.03004466621711665	-0.06239796649895336	-0.0459950348144097
0.003643692112122442	-0.03061498059630189	-0.3799043831858041	-0.1811030774871274
-0.02527708946181906	-0.09306084743483994	-0.4479320985766682	-0.1765798972649743
-0.009833812742745243	-0.0849902190975723	-0.3487255782671347	-0.09503462083742539
-0.02143435109501299	-0.04462537003133162	-0.223151869087047	-0.09315293427501242
-0.005331802122996473	-0.004680670998091502	-0.2160079261745063	-0.09028751138373427
-0.0004983152061562286	0.02012376332911539	0.4357745075914111	0.08619514066117089
0.03645805627079955	0.03708850873270388	0.5056567194398467	0.09759000783405404
0.06831190194044447	0.06982419492169269	0.301043102636424	0.07253053997923389
0.05580639377772731	0.0532132110319154	-0.009798720158086822	0.1410163471016862
-0.01791463256227279	0.01629469074692835	-0.1251000733476948	0.07519756381767495
-0.02282397232157108	-0.04777159426636568	-0.09784101302237219	0.0193266566009997
0.01453082384853142	-0.04013505870236392	-0.3175648633247022	-0.02217349064521164
0.03587738778575648	-0.02368596011155187	-0.4001556786572712	-0.1050721557702204
0.0283836522247647	-0.01356233715670733	0.4571385547250148	-0.02867994713690593
0.01220555344284459	-0.01589983665434163	0.4325575229469401	0.06936993743304885
-0.01448922697232946	-0.0165739637965284	0.4444190096277111	0.1473401289120034
-0.02333808286513336	-0.0007566124716881335	0.2574208432014233	0.1961980851481891
-0.0635439000049461	0.03536967776400475	-0.1076701117633858	0.173059744179668
-0.08716794089174291	0.02834401568702355	-0.1664738453095618	0.1248443376349013
-0.03723924678451222	0.03533899263525661	-0.2254502546420175	-0.02094738198365945
0.02715138845156296	0.04521855898197306	-0.3343155630983605	-0.1339940133699306
0.01946128002045823	0.03002971871025896	-0.1946781297826317	-0.1270359595934758
-0.005495858755833805	-0.01012866288086585	0.3597516092625674	0.02155815526148862
-0.02537205075850052	0.01785562248938463	0.3653667749076239	0.05490226278157122
-0.004346258621493841	0.04331655648279855	0.08536429887395472	0.01327669211925921
0.006213854578198201	0.01673184851123618	0.02549830926720675	0.03446027350222201
-0.01868152006577329	-0.01694253005127023	0.01953742708704705	0.03305685343313757
-0.0167418481632064	-0.001288762496228944	-0.01175125257308274	0.05447346043799377
-0.01269825899005129	-0.00208722270502445	0.01816426244559649	0.1151727544725132
-0.0126436556273972	0.003927021469098835	-0.01630157403394079	0.3375488125294004
-0.02845779975041949	-0.03063496271167669	-0.04673726428219328	0.4200341379529259
-0.03630266441189423	-0.02333575579167966	-0.0866975549895049	0.2159598137978173
-0.06769300482490556	-0.02710768008102526	-0.07515084600657186	0.005650238901336031
-0.07107283859172572	-0.05291932983529884	-0.1917681635120811	-0.4695689851101973
-0.04046076486151712	-0.03219461170940485	-0.2236674349479049	-0.7274230906101697
-0.02465948514031529	-0.005381029930823705	-0.1107772111009265	-0.1849849264967446
-0.01985009866526652	-0.01167262753954256	0.02395560267922902	-0.008032347009803461
0.008940653474320987	-0.01685184891492337	0.006353780094598329	-0.04234716401297088
0.03230414388451971	-0.003486958974873135	-0.03651916413705496	-0.2283857524765507
0.0364187772900099	-0.002332106972570302	-0.08843434054572467	-0.2657451963308014
0.01565540581261147	-0.02090103436003196	-0.02943285284953196	-0.2183903272781975
-0.005362774502751275	-0.03419648371603223	-0.07011072407586594	-0.01650723256458187
0.002272343728328155	-0.03632824321105598	-0.07850709579371307	0.03602347551079699
-0.01788681039485711	-0.02770770355208578	-0.1533976101175174	-0.0827288439508137
-0.0855406404743148	-0.02116365250615565	-0.1002885708403399	-0.1528194889321598
-0.09238684279756222	0.01201658661243761	0.0262549564104792	-0.0998231461582558
-0.02329645641942521	0.03299727905721774	0.1243832999356288	-0.06518854269931747
0.01890807538256841	-0.0006943038675555476	0.05105844945963228	-0.08198005826739646
0.0375360443571181	-0.03571441242017317	0.041371887709744	0.09199050822199079
0.03100968214302879	-0.04823815108820607	-0.01756295054341002	0.1704130163326429
0.01966654698265554	-0.03349114030039693	0.02696876648913046	0.1857276507961767
0.02568807787448625	-0.003318912698959572	0.09503592160301313	0.05892102698083488
0.02903968155131141	-0.001266107174253284	0.09624689153483282	0.02403217380042044
0.01119164771850745	0.04034456474575815	-0.1519969751960221	-0.007824751623567341
0.01031061624526838	0.06633209418727737	-0.1215877131981641	0.1125161852797387
0.0355920145466171	0.08422110854151033	0.1354739860529061	0.1298922471349208
0.08448299626406666	0.11954427560725	0.1861626150730467	0.08638641820942843
0.07665012188597975	0.06122183584968437	0.1499142982810302	0.0740262177164116
0.04977956239549905	-0.007673377298510142	0.1251449176144762	0.07252534863307006
0.03361537380465974	-0.02382430750170687	0.1165131890365502	0.05720672246994259
0.0026125691702309	-0.03762242520843832	-0.01125773992572767	0.09589694299776202
-0.008657587921725961	-0.07329542857157484	-0.08436435150815175	0.201024051423599
0.03112937596283485	-0.02475804975530074	-0.1047909511263514	0.1267199364970754
0.06715804946329326	-0.003427162587970228	-0.09981181433966844	-0.0175597907472103
0.01993011183192142	-0.01697891732535126	-0.1981407337030019	-0.1304307936863673
0.01167801157721263	0.03235905448672295	-0.22642116694275	-0.1239059113962898
0.003402426784797421	0.005802148360890737	-0.2416953209462208	0.1729072377004398
-0.0165181718419877	-0.01910612362775246	0.07818532140719596	0.1629622537482772
-0.03643281043569603	-0.01629741239997073	0.1169487528542441	0.06246916224760318
-0.02029665691369142	0.01292306591421152	0.3002125521186163	-0.2150753650624884
0.02450108045166489	0.06120095657875647	0.3068591815523513	-0.152598155910055
0.008103525730224066	0.06283468137404528	0.1948600617892653	0.0870468323878518
-0.03247034894602514	0.03120986883156103	-0.04555311219123937	-0.003945076778169531
-0.06572128635864834	0.002272080031285306	-0.1077398971386311	-0.03351033702123582
-0.05180104472713865	-0.01356320274617216	-0.1274153711466971	0.07309671235906318
-0.03543647913594615	-0.02472985785011582	-0.1174288159734456	0.1033627012477966
0.03553737703488327	-0.03032818465882281	0.3389839150444617	0.07018962884719479
0.03862802481474879	-0.03205986795707918	0.1518573544394138	0.02274690991131141
-0.009366438825921241	-0.02584584463102773	0.1982569259839699	0.01733063683080938
-0.01854808584610495	-0.01805777550950938	0.05735001341025553	-0.05074182261119115
-0.02130443589640517	-0.01310198506836496	0.0236298834957638	-0.01059023899358206
-0.02239542741213398	-0.02378524508202042	-0.07295297207643986	-0.001850968601561653
-0.02658574543712787	-0.02744274366840222	-0.06328337327620775	-0.06010808249876447
0.01259227714014391	-0.001021183806113697	-0.01067077211308146	-0.05880715446730515
0.009222085244417111	0.01325408876314083	0.01769210925107855	-0.02487214900576375
-0.03242615213913781	-0.09174529908885751	-0.06578957749375283	0.04219845760827508
-0.01432168519802472	-0.08170146201107895	-0.1633886571005594	0.06725328214912014
0.01314232872898122	-0.001992856022242652	-0.1572520651818316	0.0394256071119615
-0.005424142640359958	0.05904218800996051	0.277045303942719	0.04377873722603534
-0.0308900835106455	0.06417343457435358	0.1240518142104002	0.006958477008506225
-0.02214619826708305	0.05157129829056958	0.0777353639028205	-0.01491631790651871
-0.003818788605950052	0.03824151953696284	0.3742019255954278	0.01775854019034629
0.0160533548899362	0.02551731592231129	0.2075968111600699	0.002081911620021301
0.02627634367040136	0.03472648906587112	-0.07560486879100495	-0.04646664245828117
0.01808553343745912	0.01230164569309807	-0.05298390618921185	-0.04796954339085507
0.004000519837087872	-9.229664865675023e-06	0.003087431834612965	-0.02522294366046674
0.03397619912364693	-0.009269564177682025	-0.0772611271836946	0.005249321874710886
0.0395956393644281	-0.03099412454054565	-0.133074563057045	0.04790079337391381
0.04163185648808744	-0.02432487490896424	0.02638767597512407	0.04927003265348005
0.01809257951648931	-0.0006921998335742161	0.04243329514004723	0.01405929021742073
-0.001173464681172375	0.00897979323573673	-0.01104367679519075	-0.1221662012725962
-0.04704738089145617	-0.01776064567403354	-0.02753693441958945	-0.09458516933834153
-0.04964461096605562	-0.01830150447001418	-0.1153967964268072	-0.02071908384616382
-0.02032032710725545	0.005528626678378707	-0.1701450355413771	-0.07387335160474379
0.03627439814634645	0.01935050493922209	-0.315077465430008	-0.0599999426503382
