0.008504624366607087	-0.01475109886296438	0.01684973610203062	-0.01368885995059728
0.01512917984399984	0.02507446616856979	0.04165880401168053	-0.01139552094023038
0.007682928347695311	0.007903523170433109	0.02621293135135243	-0.01387033262397415
-0.01422814391514306	-0.03159042085294197	0.009410236903261015	-0.01577555560538
-0.02059556634551293	-0.02909457714865314	0.009397652584089644	-0.01342096019839698
-0.01653986654490384	-0.04322337712199656	0.008251901326682364	-0.0008577379726124082
-0.008666688264441396	-0.07517822039975097	0.01013643139533419	-0.0002164663625639471
-0.01466187747624292	-0.04903316197928059	-0.007314949360155766	-0.00129200046357762
-0.005119824253539571	0.01430951625536909	-0.02012833177289479	-0.005351314999898468
0.02042133599907496	0.07328704492540151	-0.01708597844902133	0.004179614099783572
0.02059717007265001	0.07342559724470116	-0.005345972472310074	0.01345175720198189
0.002547127178348839	0.05591785664058805	-0.008707335238235744	0.008467923745673279
0.008769445375489638	0.05203698885671592	0.003669092233759343	0.00311634732585378
-0.008407478070487195	0.04329501613388235	-0.002118850844229562	0.01173633460092425
-0.01075637311090647	0.03060263256778974	-0.01065470718465092	0.004784511799927423
-0.00186664515095372	-0.01643542906819411	-0.008819373454172172	0.0146943457305434
-0.0003768440673488998	-0.03214154951950933	0.05181761072093601	0.004521598310665555
-0.0166291830945885	-0.02123252487295696	0.04720975689714339	-0.004472319521145213
-0.01302057355145782	0.0009687465951895432	0.0104965271214976	0.001765571356012433
-0.01101464017553654	-0.004071920698729465	0.002440256952965752	0.005668133940548112
0.009114619357358574	0.003601479733823739	0.002082773472505699	0.01368650789802891
0.02014925430122775	-0.01736809584256412	-0.007386370107213617	0.008736226473385969
0.02786520802172691	-0.04547918675472611	-0.005527433789227961	0.009678196115863763
0.01597814097734626	-0.03094270657811487	-0.01480099817200832	0.008719185750197913
-0.01500837756930422	0.005849228111913977	-0.006341642505586912	0.008414643451281466
-0.02229525062117421	0.03215195268234435	-0.00712368019959236	0.008074107509279786
-0.01993339890357631	-0.03091364108628345	-0.01450094433100955	0.002844114372718661
-0.00749418294116086	-0.07613514133563942	-0.02120717945996865	-0.004150739749041342
0.0002063643956800499	-0.03597228409459534	-0.02739044798703204	-0.002942729402479749
-0.002158639547469892	0.00047336913595066	-0.01460960059020099	-0.003117011517339444
0.002798265399813994	0.04116261565843159	-0.02206564199438463	0.007352615270476252
0.002291408055018758	0.06154095951028339	-0.02022337275738779	0.0126703250238613
0.00483335006166727	0.07327724740558464	-0.00265224822952812	0.01515756826528293
-0.004786052942241145	0.08557249536808129	-0.00673961820827988	-0.0009136191328964894
-0.0200307997315025	0.05898432963711513	0.0003225639914642518	0.006910307659842373
-0.01661241148909544	0.0364455264502843	0.0269964893616879	0.02648879720501094
0.001225616481578329	0.01288264984824208	0.05817091929631719	0.01169764502550821
0.01138584649251777	-0.02631929099026743	0.02793522210104705	-0.006599044511638267
0.0106827979415885	-0.04068484245534727	-0.02178212810518124	-0.0003821286749454571
0.002822513075725798	-0.04284651547699016	-0.02785875976807854	-0.008418039878430001
0.003985020724093119	-0.03773424830379447	0.04965488567090819	-0.009236160296378585
0.004356797431619848	-0.01823253001174349	0.0641733118885872	-0.005688254574138363
0.007216363264694328	-0.02009898925028195	0.01572534808696865	-0.01496381492481926
-0.01887277123980713	-0.01294407774246191	-0.01402329881100813	-0.01770452784871178
-0.0211256944921891	-0.02445127922872018	-0.01112548716957356	-0.01136176483195839
-0.007054128647235456	-0.003983513769279912	0.0009901279160677585	-4.463118665703094e-05
0.001381549724735534	-0.006193564513921658	-0.01184810797545929	-0.008925218534285658
0.0007541530675348848	-0.04121564518359732	-0.0124864694175286	-0.008734445278927852
0.006287313177690228	-0.01753278851739763	0.009923000359569755	0.004953754083226816
0.01582991575537985	0.0126036853474108	0.06411086442395396	-0.00180425404648266
0.01086355148682023	0.003978588348476014	0.01619074099843762	-0.008520278181622664
0.0001313839466377628	-0.002852633193688086	-0.008199610004365967	-0.0147332325581065
-0.001634245893501051	-0.02025370237219458	-0.01791440325176755	-0.01260445804197805
-0.004894486200919855	-0.01404828508303119	-0.03408225334472071	-0.007397927208079277
0.0007990977435289264	0.04833687354866957	-0.04037329324756001	0.00706013049426564
-0.00433913901818912	0.04674542487874527	-0.02651774709899834	0.02642799064916896
0.0005275988792159104	0.04527573679658672	-0.01327529073235726	0.01817834657571107
-0.0046081423101938	0.02367075923327747	0.0259632246312928	0.00658318289315647
0.008305158101826696	0.04299384763357181	0.01880033097418299	0.00499545125387254
0.006464102578820894	0.02070232193430168	0.01740962594422973	0.003178356556019171
0.002339247190828942	-0.0006674424980398285	0.01200437828423562	-0.007762212129144119
0.01214485946423378	-0.01846600480595687	-0.01782304718099752	-0.01378319354247851
0.01790728480557578	-0.04721393762369949	-0.01724799496131118	-0.008463567521337924
0.005204703034739088	-0.0539215068651467	-0.0144546543843626	-0.006742249147989189
-0.006864241119013939	-0.03315536445708539	0.005947795826350792	-0.006046321952808575
-0.001442459764077409	-0.004446488334984935	0.002309645495302872	-0.00187408125099886
0.002550070775468645	0.01577376545604599	-0.04146545602166686	-0.001720940726206964
0.0008571365810999846	0.004378072702857433	-0.04704782292979556	-0.01170112936616148
-0.0003746782785626862	0.0240420152485799	-0.02746336375263228	-0.003401462292203738
-0.006593342745351166	0.03027899751559771	-0.03642009662771219	0.00122670850122161
-0.0004070745583833633	0.009311858244994302	-0.04298660010637708	0.01119904826965087
0.006988671129897521	0.004598169311433453	-0.02324227743014103	0.0163864447389188
0.01641555585904163	0.01222273427066979	0.04966195491415717	0.01204639991290316
-0.0008040470048854061	-0.03182350825173467	0.04802942403680781	0.008730683315115523
0.007097356433780381	-0.02007153384668253	0.006909543629703309	-0.004635546611557413
0.01521547069500009	0.01764667069311622	-0.009259904323730136	-0.005871095237450008
0.004955936066337795	0.03344526098843249	-0.002983268451675064	-0.004381625669577924
-0.007920189118505866	0.04325514159395139	0.00893003496167385	-0.004665796489690689
0.0003958230015969838	0.02469881192183179	-0.004009186626492049	-0.01083922879377395
-0.01013739333697374	-0.01542510928172301	-0.02125575275580022	-0.01359083925707941
-0.0178505596502329	0.01389695330537964	-0.01711521925653415	-0.003221147980842089
-0.01986432356633913	0.02424648949580121	0.01841128842299057	-0.004488868529152659
-0.01920449742866353	0.04525913720809926	0.01913143314702034	-0.02868112614122066
-0.002163452864862421	0.03037873953468921	0.04213368448822361	-0.02611767017512264
-0.002404334703162514	0.03495113940554461	0.04312507198612667	-0.01411689438547713
-0.005142413685616515	0.0125993269624198	0.02417652800507222	0.007051743529715101
-0.002978702032479768	-0.06049287053114922	0.00530975812367588	0.006836017417518383
0.004223151486019358	-0.08282851711604468	-0.01088289685510804	0.001913587623573201
0.00460567116510759	-0.09053322242842655	-0.006638932102858943	0.00298587746738623
0.007015220358332261	-0.0408778831178468	-0.002339010636700192	0.003266409326693596
-0.0006052345614232352	0.003976000616703624	-0.03040853658344489	-0.004151062024641001
-0.0003910382096474956	0.03324112279415697	-0.0309811418302956	0.004346225631923138
-0.001769802340557732	0.0853896872976713	0.004630251193321487	0.0003997476613197671
0.01240874358688299	0.1320254531919019	0.01499060544253016	-0.006728217413575955
0.01938013821704341	0.1210044233811107	0.02081749160645045	-0.002815518114144672
0.0170226111712068	0.07380514971352185	0.0164558052917219	-0.006811785624765997
-0.02596491190669583	0.0006756268326817827	0.002507091851211901	0.01100451073361896
-0.02366409504286013	-0.002534955715412417	0.01137691711118394	0.0122590992338932
-0.01425060564686187	-0.06441867960916005	0.002337891140719095	0.01517427507311868
0.002107451317575736	-0.0827203831835738	-0.01497254505371175	0.01384201585275631
0.01146199269759306	-0.06740543012874223	-0.009439900219076095	0.006087713653235008
0.008122755506635226	-0.01565024810566677	-0.0007832526238180228	-0.002915537489306635
6.059496355194272e-06	-0.008665114173344986	0.01180847313271302	0.002098113913084076
0.0003229647871179428	-0.04600482227837865	0.02302396089087787	-0.000282047548112314
-0.00290129141200622	-0.05909820106428423	0.02084806442252645	0.001086206977010649
-0.006131070970473067	-0.06940095982391158	0.0106269012431166	0.01816021273064506
-0.006631662073916506	-0.06237992411562077	0.02363312594474766	0.01951807132792546
0.001261641684734326	-0.03313333073708913	-0.007846794248470425	0.004933623444437184
0.001766165000886379	-0.03007327021532282	0.003598340097735032	-0.00510142390426826
-0.0032563879262952	-0.03182082424410734	0.02112074359985364	-0.008948619821451582
-0.00956406484017897	-0.02534761787141788	-0.003497903128341037	-0.004179885345141777
-0.015669333791611	-0.01250914257218423	0.001342629743708067	-0.004328692378533391
-0.01820970092938555	-0.01488709915844287	0.009905490087302946	0.001095447812731874
-0.01145752221155429	-0.0222499571353181	-0.001217867410716946	0.004515069260781735
0.0003999708801482084	-0.01569334614428171	-0.01052520699032976	0.0001622838840557886
0.02477687722356856	-0.002267669691027628	-0.01590654173751507	-0.005792881141400835
0.03700890498939802	-0.02844081607974787	-0.02636210982853077	0.001989961283959796
0.04494044886809978	-0.07073580948379583	-0.02038297239334458	-0.001435559589652856
0.03804382075547587	-0.05690051885002988	-0.01565929760345257	0.003107561546429667
0.01218678605288852	-0.009878539553804661	-0.03038268985602609	0.002481681098684126
0.01101113331229437	0.03922137527358582	-0.02318405008636694	0.0007162123400594701
0.01794342407952033	0.06320338416990946	-0.023346820863132	0.005789518399387104
-0.01182899601746919	0.07370266632643015	-0.003316508251078171	0.00702913088328359
0.0107371440030003	0.02793089090366286	0.02270955928813775	0.01400530128068559
0.01879690581772651	-0.005181627646645733	0.0307315397720265	0.01000768060822245
0.01265823811601899	-0.01396509477676237	0.03544783613115798	-0.002016449602198087
0.001541090016415462	-0.003632805799949081	0.04489216001968501	-0.004970139965524935
-0.02267311259184751	0.007330623393635143	0.02061829794275023	-0.008227146732783484
-0.02456441040310459	0.02857589824905473	0.01565562879747148	-0.01194043231345068
-0.03200997412923139	0.02853750324337209	0.0120771967562654	0.006701988747279213
-0.04203155040335597	0.02031691776544552	-0.001808308659159637	0.005595012092270393
-0.03142127656419673	0.02740502027542236	-0.01735164760367652	0.001379085813984943
-0.01239842904619082	0.03944771243433191	-0.01892018889448867	-0.01730115512658804
-0.01161368054277051	0.01042236532509114	-0.007588172734173181	-0.004078116363626491
-0.01067014363336483	-0.01420136541506186	-0.01492409009428649	0.004051123844792729
0.0001041813659808051	0.01540719543188052	-0.01146151515408401	0.005333646969328269
0.006355231073756232	0.04800190383319291	-0.002852949191793144	0.007578874383315054
0.004753993772993125	0.07397087781262993	0.01295222252637692	0.01986017199768036
0.007156893529347267	0.05633566938323665	-0.00395666819235315	0.01242748208673777
0.002728759591028608	0.04759986739371386	-0.03737410732742943	7.994711707175813e-05
-0.001965969254241588	0.03560629119323484	-0.02477362156689748	0.009945982760024143
0.0008698695169899971	0.04741597203946825	0.01134874198890902	0.00945467895948021
-0.000422924493890136	0.04167461261704066	0.02630747606184432	0.02206807661871373
0.002004158265606379	-0.009110083255690873	0.01118328861768787	0.02390693039404512
-0.003986344177749348	-0.0120203363653268	-0.009323810653360383	0.004214261217395546
-0.01118811970177357	0.02125573644408925	-0.03687167503657705	-0.01073430420924952
-0.01456994491562813	0.02185088380077783	-0.04290694558100145	-0.02107615541916738
-0.01061695293891848	0.03199965425897201	-0.03682976702303081	-0.01499886635389681
-1.395517045261281e-05	0.02493057365333565	-0.04672875861470337	-0.008071755644501258
-0.0003563785687591355	0.01503732828917745	-0.03984804636164938	-0.01480051210170555
8.952000767407139e-06	-0.003243506805075928	-0.04026500818989386	-0.00320464044735757
0.0006572596388250943	-0.04827630872928548	-0.005165138516470803	-0.005385903704861319
0.01054192791624101	-0.03345743280640118	0.03385346341628143	-0.01815651195414984
0.01468662578122613	-0.0002082278595398518	0.06441585773702051	-0.01097333130541482
0.01265136663398483	0.0003719957363165816	0.04771842487496348	-0.00796999021053096
0.01460785989842271	-0.009158971280321808	0.05096351540404009	-0.006881205052337617
0.009575205746621452	-0.05304673703072448	0.05565300629948959	0.000198085421867617
0.0112712970306687	-0.05028472332226189	0.05700479671056969	-0.002407347768931052
0.01705569579146038	-0.03602360623937731	0.04888399686484621	0.001736189590563899
0.0109738138183302	-0.02664470338300279	0.02556530911375052	0.002869624660621048
-0.01530041518813858	-0.01305151258469846	-0.002660171073608828	0.007871840405452942
-0.005517355748006869	-0.01400625071889328	-0.02582559565484369	-0.001732711535917379
0.004120309585383746	-0.008208927064535292	-0.01114672769682168	-0.01180562626044729
0.007585098516762669	0.01397911978137533	-0.01581674359656603	-0.01828908844992465
-0.006434556497961182	0.0175684151949999	-0.01708031376874236	-0.01710800840121002
-0.008227089411559699	-0.000230179999729317	-0.01743129882868315	0.006770718308726433
-0.01806662133934878	-0.02134420715418069	0.007810068793085974	0.007811279198605845
-0.01586488233656977	-0.02848350821864252	-0.02858466298651038	0.00939832172810046
-0.006518256976541805	-0.003108283888424677	0.01859799427062246	-0.01558085727701131
-0.007020100876130336	-0.001025149271194467	-0.01799918366256319	-0.02154567452354553
0.008728724490423062	0.0161871324478701	-0.03021230428856005	-0.001580597558811231
-0.01149358796505405	0.02068131459498533	-0.02151258344259917	0.006323298274778184
-0.005838019418934464	0.006991920613917724	-0.03873717652478272	0.002403508933690172
0.007669538461043511	-0.00773120573078427	-0.03836182788778945	-0.007186418462734674
0.0100619588935805	-0.0207997851803995	0.0525380279022493	0.002047566067292001
0.007761155467805141	-0.02300234222661638	0.07255332397970544	0.005137754828180986
0.01977036132019391	-0.02114304105628308	0.01702104645247387	0.005496838866133549
0.01020564145926805	-0.01398427803283712	-0.017369673804055	0.005248150183086919
0.003396381178073517	-0.005448785796800985	-0.02012878121796999	0.004410280518326636
0.01018362001857966	-0.01118063783276125	-0.02150460336014324	0.008132682155568297
0.01090458412246337	-0.02742907388312228	-0.03924082400763966	0.004711957007921847
-0.002362336866979412	-0.02704678469299017	-0.03932606835201474	-0.005415948637417998
-0.002384120847343525	-0.02491890829839264	-0.03208463782256857	-0.003077200166206019
0.002019834846408746	-0.02944267880680899	-0.01935787317534115	-0.001681488804948619
0.001651179362726543	-0.040280276198572	-0.01218541105458374	0.001154581818763304
-0.003148615757688278	-0.04591168749521708	0.03974499049473942	0.008343848528284646
0.009754336538332209	-0.02306779687754013	0.03061878533780074	0.006607104929287132
0.03101687277844555	-0.000325888150999177	0.0105717223388675	-0.001822280908870584
0.01777452412711975	-0.004365947700903146	0.01674689453012759	-0.002245725700774899
0.01782703288397548	-0.02422351382781789	0.01403795139048682	0.003707636738502421
0.0120460282903872	-0.03895387770296177	0.01150438439622595	0.01472233409284033
-0.006521074291927389	0.01077945622202195	0.00937452840121579	0.00901076199465224
-0.02254133960994704	0.003099245228835017	-0.001370072069837189	0.005499411704665568
-0.01721534580924028	-0.0168613110455648	-0.01127889492331529	-0.008828318482675429
-0.02134827536380037	-0.07862729955826933	-0.001644748032341149	-0.002471297268974887
-0.0295440408165475	-0.2108518318369052	0.01436129176550743	0.002081279198584434
-0.02018685185544325	-0.1299114261533369	0.01151085446341382	0.001321309848603115
-0.01345155444100556	-0.05784113412195917	0.001233691881689288	-0.001324569989852415
-0.005964102547497618	0.02956498022236422	-0.03102131273326822	-0.01145493857179405
-0.009315380299871686	0.09321924669014897	-0.03748721817083613	-0.008809489914966924
-0.005395105800293966	0.1406959962696568	-0.02641102412282585	-0.003233534378280667
-0.006091233585537518	0.2262636938290259	-0.03135424085805523	-0.0008190173081567158
-0.02109545200416634	0.212658985419333	-0.02190499179951006	0.01757000773237321
-0.02577159981458833	0.1067133318358318	-0.02095040362746749	0.01291645015160258
-0.02236616426473744	0.0196545757739006	0.01371685979092181	-0.007562753224726165
0.005277495246611928	0.0201234082131091	0.05037976193201531	-0.004234674351370983
0.01552995665206029	0.007400850782601439	0.03325372998587597	0.0002267518825581132
0.01237528015449748	-0.005211420879361724	0.0001843137071682765	-0.00396453757835272
0.005722222867653823	-0.007717777824809421	-0.0006281789325571466	0.0122688653254121
0.002970466773124756	0.02367599323357245	0.004588049488126088	0.005226809261338748
-0.0006885003158915407	0.05829373344459589	0.0002315044139674979	0.0008217532508998466
0.004958774563695006	0.08862303920021797	0.01771771038566697	0.008528612245943713
0.01708000256008628	0.09535608857964877	0.03207444053501753	0.01224239062204925
0.01633564589004444	0.03673761819116114	0.004237786273837946	0.001221683800631282
-0.003964609300568257	-0.001517399146007216	0.009224494563123017	-0.0124268929256691
-0.01043224781868812	-0.01226645727410271	0.0305642273061493	0.0008849594429573043
-0.01049807913123387	-0.008970088129252251	0.03711231860017018	0.01194636920673088
0.01204397378124555	-0.04210542833260549	0.01581988775018966	-0.001653031278968473
0.02293099908813193	-0.0540045108560137	0.01533792275312581	-0.00090126112099673
0.02164392449406005	-0.09078498766685923	0.01118298704363117	0.004341079569659597
0.02374416071667259	-0.08457425534330278	0.009935001073219596	0.002783504659083763
0.007338805788667903	-0.04698199561809722	0.008953590834974883	0.005708359013988399
0.004357100916975847	0.002537357861483666	-0.006170790505002484	0.006752709935322954
0.00190297120449746	0.003533405832768573	-0.002605022999316261	0.001303608908777916
-0.004772801737489766	-0.004842797561878933	-0.0157749742866652	-0.005956865933154268
-0.01114342149169077	0.001617841010056001	-0.02053915898682197	-0.008327440107331326
-0.019833485487527	0.01670553385841433	-0.01737990530727035	-0.01217447491353071
-0.004069111907650317	0.07150078163581934	-0.03485539687618081	-0.01487894029678083
0.003740659226695946	0.06369877170261803	-0.03737414529026236	-0.0104275036007129
-0.004271311023764159	0.04473208689557814	-0.01975218526376666	0.003672713997703823
0.002038355476386842	0.02290006051488526	-0.005987423345547113	0.003815873876286158
0.004489857983418739	-0.005926545383939268	0.007603570799380326	-0.003099147134441257
0.006073907000803571	-0.01709007417756597	0.05681246798917115	-0.00766786044258278
0.02316119633039733	7.619516839201008e-05	0.03102459210675118	-0.0009230222764763445
0.02304191519209289	0.003197749353733352	-0.01109465834429365	-0.007071050126145763
0.03133347456526852	0.03177449656595299	-0.01463840898890928	-0.02256236027409311
0.01356039618246713	0.001234170359378784	-0.01996016166955134	-0.02194574810394823
-0.01171143518145459	-0.1339244562636656	-0.01927366812981875	-0.003487667383349871
-0.006535309928830923	-0.1303293933262218	-0.03079892246747289	0.002605810597842166
-0.01224255855641996	-0.08410193744541088	-0.008451609525476352	0.0009058231429981381
-0.009181697876653239	0.0001291030716276287	-0.008564764302144751	0.004011033866253936
-0.01380076100892053	0.04426780277915738	-0.008885940387518582	-0.005608234517491571
-0.008521592282635037	0.04008546251477715	-0.001929921723642435	-0.005680563679392276
-0.00250993206761991	0.05751079258656429	-0.006932128374874316	-0.01040746496154602
-0.003548823094549583	0.04081388415871387	-0.005790669419357265	-0.0007172812169472143
-0.01577581503387882	-0.04259168411220175	-0.007087470123716464	0.008931436168211553
-0.0127684855350465	-0.07650609982819497	0.02519481440519026	0.006104729134266938
-0.005565053999627886	-0.07843085892139601	0.02041026544980469	-0.002587384360860972
0.01089424447447846	-0.03480065104307524	0.008273434603389912	-0.002377210466337311
0.003931612582185585	-0.009051630124564622	0.005515169121304476	-0.002528918648730452
-0.005438755054945406	0.01982753472907392	-0.002871072066041345	0.009840874070950485
0.01523686951872677	0.04940877201158507	-0.05511127112852593	0.01507267740234453
0.01585648576018318	-0.01449631523577844	-0.05338419656543923	0.01330961909728801
0.006383893135748825	-0.03558328840769111	-0.01157125620806136	-0.001666498652134644
0.008615710918444198	-0.02378938236306158	-0.009850506004922819	-0.01310266830398277
-0.01420431571248643	0.02707769553669006	0.01388236266556232	-0.004714489453567778
0.0002990884149375317	0.0379176954675013	0.0728133228107547	-0.002114153699069796
-0.008372030216024822	0.05214564893296778	0.09814669761107796	-0.006427448318493597
-0.01697323463270859	0.1106297683811135	0.04642234923255103	-0.006460918472752219
-0.0335376402016685	0.1376933335524746	0.0202349599559868	-0.001864205949563142
-0.02987238730562839	0.1121725178659767	0.0008261364925963191	0.008811087837624765
-0.01573249814845531	0.04050732211303407	-0.03102338389269781	0.008960874927766496
-0.003868884613745215	-0.01645134381344913	-0.05596250494556464	0.01626747921726369
0.003741625488633556	-0.1213436704580538	-0.05154225489259731	0.0069774663150999
0.01371761563548866	-0.135597990730761	-0.008063334982568815	-0.0003919947631765529
0.01689364234432369	-0.1104053643415908	0.02171826894998472	0.01405047425176647
0.01241889553191899	-0.08025359489400488	0.03183592970166638	0.03223189083779415
0.005144529771035022	-0.02380696014419394	0.03933639065398577	0.02617537161653246
-0.004712399551914392	0.007733790836660983	0.06555845292872493	0.02033348161308277
-0.01490119295328774	0.03577156653685126	0.04509446003868788	0.01003068699108858
-0.01479346101166781	0.04049884073534695	0.03494778143318285	-0.005528235310986783
-0.01092704553269135	0.05162515166075861	0.02581552944312511	-0.01132371436891473
-0.003909255978651547	0.03402607562964063	0.0116513299340077	-0.01130319888098722
-0.01517965101510806	0.01139393075251677	0.005639502066457277	-0.00284737945458474
-0.01329811179374	-0.001361993894825342	-0.007025623476741158	-0.00314128302369731
-0.007244445628407303	-0.009102779913124106	-0.02671961657108868	0.009744661021488171
0.02366782766294804	-0.02959767726812714	-0.03594559730603289	0.01553266784147603
0.03839623892068209	-0.04991591234102292	-0.03833058591686193	0.003556294788295007
0.02058101179265536	-0.04877434840518446	-0.02731712199224248	0.003815100922836648
0.0169508234075458	-0.01862505047213438	-0.03193547986908486	-0.0008443350257474391
0.02320950224648606	0.01233447487461273	-0.02818833103418815	-0.007069024301130194
0.0160074556136784	0.01041075222015814	-0.03237430831442586	-0.009452983100155429
0.002388283717423251	0.00649396991538397	-0.03368283858867079	-0.01123638303235622
-0.01142168570809446	0.008801585354691735	-0.0365911685489894	-0.003374943213726098
-0.01987612373668819	-0.03756007149282931	-0.0330615917667421	0.003841124360049441
-0.02190548163949255	-0.03827518257970734	-0.02250556714311637	-0.00917234505425802
-0.01457128466760055	-0.03102631259018266	0.006869670398448189	-0.01789528985661938
0.001566020703986713	-0.004012298701763845	0.004257866815672671	-0.01446652525844758
-0.007535760940038838	0.00696834789550937	-0.002014002394206698	-0.006010988573587507
-0.001191375102292455	-0.002428372790159291	0.01795342550261022	-0.001134436394754397
0.007225993239268854	-0.007792790448267021	0.01737230583479193	-0.01736250893272824
0.01379024772364093	0.01934805247775442	0.02141772893717515	-0.02087069112087329
0.01334393592453205	0.03172132834610498	0.01406814431263709	-0.0162087088404806
0.006885664853295449	0.02151022787186756	0.01948272779913613	-0.007876549144563288
0.0064912090067789	0.02209728988375106	0.02415919179058949	0.001916779347208247
-0.01005298222340633	0.05073693765536776	-0.004564928595114697	-0.006365911828364796
-0.01893625493360829	-0.000780357029462407	0.003922033683292463	-0.00326979295447109
-0.00647612019447879	-0.07002105243300447	0.001598197866097658	0.002979807127980142
0.006673570978987145	-0.08925132447748135	-0.002220941425665722	0.01680523733743365
-0.007736929328300061	-0.07947507831047772	-0.003722040601268585	0.01729359303431029
-0.009946568947852634	-0.06192978871552224	-0.01911685263310757	0.01452923544112296
-0.002718485776804206	-0.05147874301756818	-0.0469779391164841	-0.009936172061393023
-0.002980053969724511	-0.04352042806223155	-0.04473899501347007	-0.01420110665835555
0.004034254436073423	-0.01808771320563567	-0.04090706054997142	-0.00440192642179845
0.01076544493727715	0.09628080474132296	-0.04005978568605272	0.01072104909918392
-0.003876510016455792	0.1154949576120112	-0.0408397313648545	-0.003193048587869567
-0.01697454425690201	0.05779120255883524	-0.02143781402808464	-0.01078176394809875
-0.01317214388750943	0.1162595471208964	0.0496564853729976	0.00597520582500019
-0.001648895095434585	0.06422706513409288	0.07417883990778913	0.01715784051299092
0.02006400239638443	0.0562301653039822	0.03299121264835737	0.01070271599780771
0.01198699489654773	0.04542003852729054	0.01771796982281498	0.01056047233294995
0.001109142441803111	0.07514860166706849	0.005393675289192077	-0.001426660470528884
-0.001789573055376459	0.09705425935174779	0.02213825771913389	-0.001530058439859702
0.008099419789335132	0.08928022281059918	0.06768387370971292	0.0006936988273351799
0.0109727825719087	0.06517187629054816	0.07035624973540022	0.00772680671574409
0.00463060134358659	0.04246335106700436	0.05923634609535464	0.0194199816362904
-0.006885389722972865	0.02222827235083978	0.009408646477543098	0.01839923376413366
0.009291174841884601	-0.0866635731620638	-0.006694634595149266	0.002624903899234858
0.001700757497660351	-0.1182585324744142	0.001895505866648191	-0.003991841504573636
0.004541709627761599	-0.1066537351566087	-0.01142368821310165	-0.003694728998839185
0.008706309499627713	-0.0897407134121206	-0.02437547765360193	-0.009323669902957089
0.01211261658248627	-0.06075119584635959	-0.02600538482952227	-0.005053101641757842
0.0003388957335062607	-0.04845889408196946	-0.04626965252658228	-0.003474949176317795
-0.005561563895513327	-0.03545166343960807	0.01173204613056164	0.0002260674753903087
-0.005811675243736615	0.01332873519430173	0.02515234381585672	0.01352928137902397
-0.01610834633108756	0.05241837907321789	-0.01406100686984271	0.005670166732097142
-0.02559011209948145	0.03362752192398458	-0.0009482185311881783	-0.002303047284987304
-0.01162255510706331	0.003223330756861617	-0.003723926683871221	-0.008669487265499317
-0.004397843549071021	0.0180980184020461	-0.00751749686585524	-0.005026456720966661
-0.004766507046307455	0.01917957113525149	-0.01541113453765035	-0.0009306097485941277
0.01396613446910953	0.06202242905314115	-0.02409870645468334	-0.002959122910775389
0.02863909470566896	0.05219605562101867	-0.02391211909683272	-0.01539202522273818
0.01788101966182884	-0.01402027177720995	-0.0266967261605445	-0.005738058694149164
0.009512463595723471	-0.04039639443067921	-0.03640500476852233	0.008542612647027268
0.007383084801912067	-0.05479586560364862	-0.03127721535797374	0.008982149246621791
0.0005769751951659708	-0.05434983192739178	-0.02486210070623326	0.005121633424779285
-0.0002078229340505108	-0.0858219230229875	-0.02714414261188382	0.00569172676379152
0.001928820852479496	-0.05980207473578892	-0.003166238749409665	0.006490216166875745
0.01038868239431335	-0.0203895523094407	0.02730889882305447	-0.002873191065512009
0.009829416655421174	-0.01604706553229942	0.03073285322654836	0.0006807266558426919
0.009091593062716488	0.004713276050996025	0.009833329273296252	-0.001895042953439229
0.008515830773068667	0.02603725488950494	-0.005104352855974546	-0.01029208027845768
0.008835980634454449	0.02713826240033984	-0.002438205248222601	-0.01366727046319254
0.001002021252273443	0.04000008546259926	-0.002186588139659363	-0.004173788371532339
0.00170369463383895	-0.002831569068078279	0.001638410869685549	-0.0004753843511558502
0.0002502572607279624	-0.0002383194272117683	0.03958665851051787	0.004431971831856005
-0.02047762453619338	-0.04263307261012436	0.04784446699821974	0.0142915165440049
-0.03216338278495107	-0.05593761010469291	0.02213808853554319	-0.00314378881827288
-0.02152456560271694	-0.02278793339039874	0.001441320892343328	-0.009698243441429548
0.009356084908821167	0.02692957947189052	-0.001279960721244173	-0.001548450331393006
0.002046701648362064	0.06144550814134758	-0.02295354910245297	0.003223886549544318
-0.004077102266984526	0.08734024850149004	-0.03393593737750005	0.003176463959576402
0.01791603761786714	0.07092810680586169	-0.05712973876548638	0.002937100135492924
0.01638877823443225	0.03228288840786638	-0.05125477214356576	-0.00154727803077649
-0.003065762053645447	0.01904873502981583	-0.02366617905413678	-0.006818905209604198
-0.0021844823779259	-0.008549608223828152	-0.004179457649479044	-0.01911021654790214
-0.006876752185510726	-0.02723226609926593	0.07650179015174073	-0.002115535037752185
-0.01282065477797598	-0.0155818067166387	0.07293774077640375	0.01775163773065672
-0.007430821883894621	-0.0105501255456505	0.03522296282390799	0.01830434616643016
-0.002620841544370357	0.05228547588986868	0.01750509134854261	0.007730108414349814
-0.008511773921994372	0.06836312703390805	0.007608924535241938	0.009934382866728665
0.007638818083386596	0.0005042306718075955	0.03905709897757766	-0.002985306752983233
0.001375117027579245	-0.02012592133868137	0.04711939949528689	-0.01897486136638884
-0.007613380793056413	-0.01909377263731168	0.01390360285809205	-0.01314017598210072
-0.01205569568310692	-0.03326410113883268	-0.01622486133383141	-0.003510970538555523
-0.01951224953266285	-0.04807747597360879	-0.01314145601236298	-0.00186758653820238
-0.01149364584937348	-0.03943270616320885	-0.004985856188226417	-0.02117177167231669
0.003677756385964497	0.001803196109148222	-0.002179061771600921	-0.01142916810725137
-0.0006541365143519902	-0.0002742142314804692	0.006636779432679121	-0.01199025389316741
0.0001048796925579349	-0.07827355446754086	0.02860141495697719	-0.004832695064298651
0.002780818305042781	-0.03095855486712435	0.05169654236263728	-0.0001660282177339658
0.002662925646709201	-0.01114984560685205	0.005278836275387097	0.008318822594013293
0.01733642813001184	-0.02614972861384132	0.001748660669033192	0.01323637386797469
0.01404051258679866	-0.006107269976380543	-0.0204195214857138	-0.004205027656895737
0.0146490895439312	0.004512619449416218	-0.03161249108725804	-0.01285052438782349
0.008239239345776144	0.03694544038381485	-0.02792452936741521	-0.005449118215520285
-0.0127243614956966	0.02735765087225396	-0.02870979882673064	0.006738593110934533
-0.02644679113247523	-0.01001518569718814	-0.007684378473559647	0.01489634515122458
-0.01987226479269991	-0.01379428496411349	-0.01156161768651217	0.01472874258434055
-0.003313243749434752	-0.004669731965700074	-0.02199962330756672	0.0115812099412557
0.007313058634617712	0.01979926840893137	-0.02490065714181218	0.002056543901723795
0.01050001285963866	0.0152453085224511	-0.02894149092284944	-0.005747493235790787
0.0008591894943559856	0.008876087271850864	-0.01364006170989544	-0.01955098178551982
-0.008991766640294427	-0.01431811370260938	0.0022329174168912	-0.01808832214614576
-0.02034738684706112	-0.01666505618135515	0.00110078431923822	-0.004085845579772143
-0.01944162006890034	0.008364687587667374	0.004354577590176227	-0.003550631637467935
-0.004399836948097733	0.009630278178105481	0.01311179220902768	0.003924165460453554
-0.006506006614737696	-0.005739319684464918	0.01794754073001415	-0.002304574338405105
-0.01406755809007761	-0.0346541822115953	-0.01928994938768253	0.0114487526368136
0.0001149699988320289	-0.02626091163860873	-0.001594862109562442	0.01822317700480621
0.01405618505466648	-0.03262448619208747	0.0119403628055568	0.0139863629104903
0.04089848588136865	-0.02584697110229833	-0.02339141520232765	0.01092981443161385
0.0236307775166289	-0.009466144891329071	-0.007264679601646625	0.02127189013752465
0.01255317021717043	0.02397628466365824	0.06060978675510977	0.001215399070511031
0.0101669374014155	0.03416183324996038	0.02629696881421793	0.002045212311196613
0.0009763258834636728	0.02060150255574098	0.003883121377449702	-0.002612709320585934
0.007493571181042307	-0.04767816474123017	0.01189195608964267	-0.003569804615600556
-0.009968501134793539	-0.06847261960303377	0.02384761712198058	-0.001171041746825911
0.002317202863351315	-0.04544130542542202	0.02277480629210964	0.002842823291111107
0.009486041698442018	0.03712077908812184	0.02389362576934699	-0.0003717357420289886
0.0004639418987978538	0.08334169190659012	0.01398901816499375	-0.008664443743854448
-0.005021222589095702	0.07788779267782901	0.01027442989512899	-0.0123463149172748
-0.004944244441545814	0.09814928574904656	0.004766269939321246	-0.01419045076466237
-0.01106927954631776	0.07567976883672019	-0.03452943257064166	-0.01694875145083539
-0.01446087706194541	0.01622374690732506	-0.02695071791001225	-0.002987084924007472
-0.001720883209340391	0.009150003846970099	-0.03803676931338081	0.0178003891036382
0.02579401090070897	0.03795527803611799	-0.07759921577732844	0.01067308750218072
0.02044753326059778	0.03683641635782421	-0.09548686397201742	0.01404111236901904
0.0105414171250764	0.0683241013762738	-0.02218914896957736	-0.007373302517157081
-0.002587182066108044	0.01548757237910873	0.008529610490038102	-0.00786402625533144
-0.01170913105316123	-0.01347974106047723	0.00579673040119326	-0.01512382351200575
-0.007698490337866447	-0.01376353723973906	0.01332988522942757	0.00486858526948787
-0.01684789605642378	-0.01078281620752871	-0.02190602672732835	0.005098309611749754
-0.01317771698235125	-0.06009105161842872	-0.0117610979139219	0.006127331964076823
-0.01828867811700721	-0.08727473135476151	-0.005932308975752953	0.01517558244792932
-0.01153293604609919	-0.07854808820491406	-0.009389935253782166	0.01625217934996051
-0.006653201514729589	-0.01116852881417355	0.001968603019687399	0.01422578561828331
0.00384679713507012	-0.03127057119505065	0.002863655693926889	0.006762302703402456
0.001304415660128441	-0.01803862890588995	0.04060351408693971	-0.001470675818263767
-0.001800044990459969	0.02838365480407246	0.05144620700023362	-0.001731916674289038
0.004703378908981404	0.06508039628262353	0.03667984453194374	-0.003460867342431609
0.0108128458363816	0.05846393427084912	0.01261426240757792	-0.009171744467878403
0.02641400626386523	0.04075672807536171	0.01450696955183558	-0.007447316238420639
0.01676336133328139	-0.02336358687190691	0.005704145941369853	-0.002051405887782794
0.01063573280146895	-0.04199603304992829	-0.02631649736813977	-0.002089280982296881
0.01255907337661998	-0.03955716232261985	-0.01844788645780223	-0.006550665517392677
-0.002396353265400151	-0.0279513001637699	-0.01353143025434842	-0.002022495146250671
-0.004485890344090803	-0.0163280979549822	-0.02058053380931745	-0.009395632760909428
-0.009000601057734632	-0.01492479313450707	-0.008413237246006471	-0.01392661704740373
-0.007282064646777753	-0.01728681163914168	-0.004037118163581377	-0.002843407581783774
-0.006129154400336728	-0.002845756244505825	-0.005951540583392927	0.003068606292292686
0.00127933072300119	-0.01338236946626834	-0.01467027186351816	-0.001200702895176745
0.004028231915170301	-0.02808772772236778	-0.008433958651494829	0.0007763758475296584
0.001439396900109399	-0.003893544425437085	-0.0002182146919432986	0.009103121498516199
0.005386470690417943	-0.01638960750420006	-0.00167517728580474	0.01274154898357876
-0.003657231303283343	-0.0327781481826501	-0.01716400326845736	-0.00174637578759463
0.002915760276264074	-0.03305753060556865	-0.001795054469136738	-0.01511619298008549
-0.02160986651180798	-0.03978820846309372	0.002034718123367446	-0.01194526495504855
-0.02751397671479665	-0.02260271914830029	0.00123033929255982	-0.005444147916170967
-0.01598111126556378	-0.03042069063043791	0.01491797735912838	0.007176283621182628
-0.00365307840983623	-0.05195874915565871	0.03063124609291928	0.02536782747199928
0.01765864277115296	-0.02996026694974269	0.03583238462563258	0.02574452941737249
0.03038393474946433	0.02084960570051242	-0.0005676710017772464	0.007274248052910798
0.02040391795506522	0.0680609037964533	-0.0003949296815691757	0.008342082356171614
0.01324907524674155	0.06074317254180685	0.009146710773376057	-0.009133652030246226
0.004054433806273764	0.03046181536397369	0.01430707838742794	-0.02601006286333186
-0.008852024225705897	0.02036221086866149	0.01112279973837831	-0.01912421288438634
-0.002178965978161702	0.004267182349006411	0.01466639792255824	-0.008178939580768776
-0.005261371463929854	0.02013874846388206	0.02722799700985352	-0.01135036314328427
-0.008408678670378453	0.01584910842769273	0.01312287804939156	-0.002458844741329503
-0.008140844203260184	0.01005012618424451	0.03045841435790674	0.009551841145019184
-0.005311667117235711	0.02358165129776159	0.03168041636015371	0.01262456101117858
0.005561310426306523	0.05041607161396573	0.007041221144110235	0.01028676805424389
-0.0006893951071992386	0.06245320532063899	-0.01712587243902729	-0.00221224801946768
-0.01828012704869944	0.05858258654915297	-0.02258241477688155	-0.008094328570160941
-0.01979029183510772	0.04470634408859352	-0.01052902975735127	0.0001937147799362918
-0.01753310184768808	0.03299665767949145	-0.0015680608327449	0.00592061161793586
0.008839466028729929	-0.01707496242746595	0.008433332977441914	-0.009109340072138613
0.01529526854922724	-0.03156558043195912	-0.01440067502102227	-0.01185343910553959
0.003896939780563126	0.006464441398006887	-0.01993349313237037	0.01030253999608331
-0.003537398414394238	0.02174595012843625	-0.008461696366859376	0.005061973883623889
-0.001099391240519172	0.006469801354905337	-0.01158384206328248	0.01138999223551226
0.004200975452103897	-0.0118544148104373	-0.02290346187669175	0.01125560015939129
0.01533315931749102	0.03630973218831068	-0.003154587781439466	-0.00577278530200297
0.005270522282738382	0.01870168217260426	-0.000896838585605813	-0.0006612218399252513
-0.0006342033463624738	-0.05670960719413179	-0.0008367515608994155	-0.0002852137299099318
8.106751021866685e-05	-0.04058768088892997	0.003450342814923046	0.0001436783727663664
0.003311349142121458	-0.05605535544272711	-0.001177975170395329	-0.004199439374356791
0.002622728653397798	-0.01221170457319561	-0.005601176734588582	-0.01112394119915543
-0.01681896125724357	0.003997131292215853	0.008902591916566314	-0.002127979203375087
-0.01137401054063009	0.01471411258087366	0.01008854390264972	0.001519303512585838
0.02992669880060835	0.03294377958077631	-0.003610311652720445	-0.005010572353585575
0.01699032715542884	0.02531020703426174	0.01027496359498932	0.0001940875240527706
0.007758830091355735	-0.008327546115764788	0.01268396772398808	-0.0009432082324787086
0.005292343766420776	-0.03187037075011708	-0.01692852673231737	-0.003128501066411752
0.006648771500768399	-0.02034600050724137	-0.03257029388545263	-0.005295132614718248
-0.005488082268151871	-0.04474090386859567	-0.002665746716764529	-0.00673919248727388
-0.009764439509790212	-0.06516725224556175	0.01868084235872364	0.01238148514515561
-0.01248971757499662	-0.03450791326932967	-0.01020030873473307	0.007686579517371149
-0.009769954386792288	-0.01984183329780869	0.03421583960447883	0.004190210084670291
-0.002718161476903486	0.03601553044785603	0.04874792163652617	0.0138594738689091
-0.008764501676460588	0.02438081184888401	0.03246183471017015	0.01191473719158278
-0.007136709142379569	0.004147862127390464	0.01030110041260768	0.00600965068977582
-0.002413852464448543	0.008514262506966033	0.00329634795891628	0.0008364586232914879
0.001995613009058186	0.02258905571575858	-0.01673926974853881	-0.01614563706792981
-0.0142513080366145	0.01680861109508921	-0.03316159570536364	-0.01695754781378753
-0.009229172095877739	-0.01690629575247637	-0.04246031173815715	-0.01048746013866921
-0.001352541483157059	-0.01030447552795792	-0.05727921097959649	-0.01104192735419116
0.004125427947168438	-0.02449475229412901	-0.04908220111824406	-0.002804505432133062
0.00762468419106817	-0.008080722875503512	0.003744573194949466	-0.00673280607255277
0.01552649080690096	-0.02757789988880407	0.03565033845420214	-0.00324254446366415
0.006261655248193766	-0.05127722257965991	0.01382458450227679	0.006074063219500829
0.006080041468708989	-0.01882000803448174	0.02872085586464744	0.005840959190344608
0.004755065593734566	0.003495781499058436	-0.002559572989122526	0.00185265300656179
-0.00362894095009643	0.005117579106564705	0.007876879815653118	0.009795159730900609
-0.003613512380049341	0.04931834880813289	0.01663242401936252	0.006639111157825367
0.0006190605274942599	0.07070226611039798	0.02809949096577632	-0.000214803115524483
0.004418842821318276	0.04413945486040042	0.01176933595304804	0.009124897913463961
0.007818545942037874	0.02124668428373532	-0.005101682659011634	0.006145424710297733
0.009927863188780693	0.01932156162291421	-0.0008726855538548868	0.008580200256308445
0.007018623400659947	-0.0006002540644147507	0.007720843651367494	0.004459886673025128
-0.01201556062585242	-0.03590441557706631	0.01310677074355053	0.006955036342903749
-0.008954576190871638	-0.01556324580283878	0.01772986988142258	0.009759658890158431
-0.01188410897403181	0.01896894440125601	0.0184771721549112	0.008161325480330354
-0.009398462061467742	0.05710894628447528	-0.00906093973969826	0.005363414376719429
-0.005953348644714849	0.0615587693713376	-0.006492224504947327	0.004510576131730213
0.00215231650988781	0.03911098428883852	-0.02258864975763116	-0.008672918776105806
0.004105456624034884	-0.03040918098064661	-0.04782612060903935	-0.01106590686044583
-0.007014685666069151	-0.06891219419814482	-0.05873094509574752	0.0006785775691585435
0.002831795215503254	-0.07108613143489662	-0.04574052491624496	-0.01142194981892169
0.0005281200436890764	-0.08771080250195569	-0.02748394115628918	-0.007427314892121827
-0.003915061557839832	-0.0342107767842013	0.0001807015863889362	0.00362528834041243
-0.01094297820523736	-0.06622491524381292	0.005860816762226682	0.01128009491930167
0.006963098315626951	-0.048554845243396	0.01687369710750326	-0.002064632084616499
0.01927515098176324	-0.06640797973499904	0.03211463256861738	-0.009825484910973596
0.00274348953494089	-0.0446585767864305	0.01551167776050807	-0.01495483350712042
-0.01801921482180038	-0.03880438650578902	0.02043157819788775	-0.01514383197196411
0.0001290807959856815	-0.002984712960781721	0.0186373785078666	-0.01803296035154529
0.01385200542235002	0.0006647798869360692	0.007209215594519858	-0.01085689459563766
0.03201136203075306	0.05071840616760075	-0.01467195128695208	-0.01033893826920471
0.03462596154300739	0.1213216400083381	-0.000301220395449615	-0.01180013445634206
0.01729632482182088	0.1223153501558092	-0.016675128421201	-0.008260077060816226
-0.002053132623660696	0.02827300481518394	-0.025772391600063	-0.0007888017681490331
-0.01520040771262766	-0.009732310809843171	-0.01826719040887829	0.002889721839019562
-0.01200204095549557	-0.01582640354577529	-0.001637677722876226	0.006688739469478369
-0.007598621087409545	-0.008264123865978495	0.004220027924971058	0.01542789093507284
-0.003317649596601139	-0.006316603914648525	0.009311509015508056	0.004924014167160397
-0.007644934544393971	0.03756797664653395	0.01871625687897728	0.007201908486167389
-0.005340784433007869	0.08550674984025995	0.01581338444891839	0.01347614133632996
-0.002124445541641375	0.07269130537402387	0.01849434270325393	0.01896296730308909
-0.008141822608910287	0.05462055459870244	0.01020084714683478	0.007713383467435208
-0.004839897074025812	0.09024031294371046	-0.01544337957021377	-0.001116397135412825
-0.006058740775104116	0.0802293294646185	-0.01648263490992328	0.0002031115268284359
-0.002821098648291936	0.01020692499229928	-0.009437347898950491	-0.008317973747487779
0.007814531766715939	-0.07221628737425778	-0.007331095003225119	-0.01120747581777549
-0.002184047549788421	-0.1076310386238994	-0.02059766472724806	-0.009959512390244339
-0.01407878516536576	-0.08329323690801342	-0.02441095632313631	-0.004009583492994036
0.008427163711216153	-0.06774429685694856	-0.02697970030838657	-0.002187643469955102
0.0120113872081735	-0.05488807458212949	-0.04670628175412461	0.00550511101548641
0.01089783909521715	-0.01393132612009614	-0.03230021911798119	0.003593546581459143
0.006896058451924828	0.02131087353924619	-0.03480037600360057	0.01281297662057177
0.005912684578691026	0.03322779516896599	0.0288331681594852	0.0001103774443697005
-0.0001838764104134614	0.0392630323698752	0.04164879495830664	-0.02004338073896446
-0.001358023183099469	0.02131230436048552	0.06951943846431323	-0.00125917129664518
0.0005328851477037128	0.02562614710280559	0.08961060271592916	0.003870461808263378
-0.00546835714969166	0.03847544404157716	0.08446985008699254	0.003206259366901878
-0.002144298021478515	0.03823975905456695	0.04471826405410927	0.01747502778931368
-0.00839912882981155	0.02747602546054615	0.01741562867335748	0.01240120182473968
-0.01389871642929818	-0.0008453553296569247	-0.002695760436554763	0.01124664549251581
-0.01578057017340453	0.02690395484977489	0.004437838487475439	0.01910596420075356
-0.01849993898604129	-0.01172933681578118	0.02577604190047714	0.02556043328691622
-0.01316349960687609	-0.02306705328829303	0.01770263884203336	0.01913902514836372
0.003938273316529362	-0.007351154763302932	-0.009683913331854536	-0.001310488611636627
-0.002083087051570228	-0.03877272518706917	-0.0310044617432012	-0.01016775260963313
0.007640281633806065	-0.05632420989346254	-0.02159545674851761	-0.01919193468931123
0.005577824767237172	-0.0574775376067497	-0.01555017507649799	-0.01347777007816173
0.01196777401471913	-0.07449243460488383	-0.01588458006291664	-0.01544858317185479
0.009530810599368522	-0.08478968784972105	-0.03315380528716385	-0.01608828141454727
-0.01402820057419715	-0.09085556713094992	-0.03088084840380835	-0.00140072109533346
-0.004451941403856762	-0.06547373257588925	-0.02845392168444589	-0.006343126922828172
0.01279266820566414	-0.03607306295052129	-0.02549281248448013	-0.005236618970932172
0.00810293628708722	-0.01937003356529444	-0.0177331182868829	0.003346778299292375
0.009043379830366264	0.002936911746703084	-0.02386208262815353	0.0005026989252253642
0.00816291869081184	0.03385329003194233	-0.02412159162004541	-0.003309986359849878
0.008908069178510123	0.05226086789486946	0.0005243287215615577	0.007896617275489624
-0.004523558354216634	-0.01820542824440164	-0.03117309579146414	-0.003478635694676289
-0.003565817874596459	-0.03326094472917444	-0.04177579567187232	-0.009041361145188569
-0.004090201321430568	-0.0071529143961446	-0.01368785436467202	0.01181173897486676
-0.009238324626955164	0.01402694636882436	-0.01087124845637118	0.01948434343581598
-0.006239061981800211	0.030001096884301	0.01545106308655277	0.004397150646584571
-0.009481938678493751	0.006575304472133168	0.07193810144701128	-0.01484194271210131
-0.01938473169516541	0.0006921621660827028	0.03857784117651648	-0.01209328291890447
-0.02547551810356396	0.01866182858573807	0.02430504446984186	-0.01301156637174656
-0.0059706340140858	0.03280865609253798	0.01964790447567821	-0.003390292818804951
-0.004119784041941123	0.03073012894300731	0.005611507256845749	-0.003353715588929094
-0.001098927995270355	0.009967143139162344	0.008539275770955127	-0.001877818003613098
0.00845370123232414	0.01711722146692932	0.01621237527376976	-0.001539718109416865
0.007454242038653161	0.03240790966008989	0.007569865491215733	0.0006784682145540668
0.01259786595300033	0.03971896380880009	0.001145712065109904	-0.0006450951556780933
-0.002695116853912881	0.05117443285337296	0.004010775726042602	0.001070837300207152
0.004910440817489282	0.05573892091594838	0.00821783595907654	0.01815168263066029
0.0005458804842728552	0.04996038075529195	-0.00821278189558655	0.01363527905530346
-0.00117034405679721	0.002469774259314911	-0.006985162423778268	0.009863454037756935
-0.007893519393639357	-0.05403095169680704	-0.002250787902853358	0.007975336335233516
-3.167797330651296e-05	-0.01941852394455765	0.01034814371985686	0.008649910675233673
0.01627841622318819	0.03636113633931651	0.001155618831236028	0.001914914584644041
0.02705835748852485	0.07576033744343165	-0.006886766048083161	-0.02694614389199735
0.0198923077429623	0.08210511854726661	-0.01078737364842402	-0.02901501486563172
0.01627812210723492	0.06788405789445659	0.003203127508433945	-0.007932518519413045
0.001139607514587241	0.05267124408625411	-0.005633555571080945	-0.0003927051945108827
-0.001955266207926402	0.06542167947686529	-0.002241400093706992	-0.0006039952596050835
-0.006632548962386518	0.04340665820065969	-0.002018945981917143	0.002181900179411901
-0.01132201603720612	0.02436007987559802	0.0003057891668010342	0.003883546895399775
-0.008759562843346712	-0.03471865421871197	-0.005249974128157016	0.0008544842344897777
0.00877126813669854	-0.07606054454008394	-0.006428405949052203	-0.001934866277541799
0.01126934995329087	-0.04953573923508223	0.004309310722927931	0.0001726158376727739
0.005061236988164021	-0.008051074007316241	0.0098154857610978	0.003062724458625704
0.0286851398044222	-0.03111705816877689	0.01655210417245563	0.001740674145258972
0.02306958989944349	-0.04421763118213797	0.02093113329023438	-0.008926968399628022
0.0009528726183907072	-0.04511425537098974	0.02328276995701031	0.0006209649271788513
-0.01601729991360118	-0.0411922269415765	-0.01226340936818186	0.004774483830108624
-0.01490318271420396	-0.06956241717452609	-0.03553361282258068	0.002378664760306287
-0.004669583939237694	-0.0581976478107958	-0.006489584729075216	-0.006682198616862411
-0.007211996372958608	-0.02785888437952069	-0.004416782471439766	-0.001450626220477888
-0.003993420090487304	0.01075541512217085	-0.01434764474920047	0.005857306155360988
0.01359850535656631	0.07395514562971711	-0.006113869593708014	-0.007495878672476509
0.006593241800248703	0.08946002233258038	0.03268429766239582	-0.006231396574870617
-0.007503181016176557	0.06212667800759593	0.06125611314030507	-0.0002392096239504678
-0.02171658572059995	-0.02884294803768557	0.01017656814466663	0.01237479549274343
-0.01744997977979138	-0.0619762336078549	-0.02714730774386282	0.008575626123832504
0.005969248581812279	-0.064507715057902	-0.03786292964607901	0.002764645393676018
0.01206048905951881	-0.06724466799740554	-0.03655059753253304	0.004943169877749385
-0.01652587701854367	-0.07304161837517198	-0.02233417613458775	0.008903435808146145
-0.0106915466354401	-0.04046487116069586	-0.01559608088522668	0.01494026849501742
0.006315392164006039	-0.006154752920589851	0.01184096429215634	0.005509823384895595
-5.861445653809514e-05	-0.01933484758066289	0.01390270817849113	-0.0041492940663072
-0.01152019128935206	-0.02568327551613534	0.005859717078068512	-0.003556835240054358
-0.003052083159633553	0.002762546731044192	-0.01646768688575507	0.001922314588673034
-0.006843454207246208	0.01741134529201008	-0.04834229796089258	-0.003405586741786577
0.000370402932376344	0.01524728715030452	-0.03439107797552584	0.01244459932302389
0.007750403974533053	0.005588990326134667	-0.01972315616296419	0.00896234325440427
0.01268589461026725	-0.05759836497488412	-0.02140632572811374	0.005573034009212638
0.01565255028261782	-0.1006287415577032	-0.03787618208208808	0.0006532750437878573
0.020773202967476	-0.06551196051565569	0.06602702015812277	0.006056877765838898
0.008915105272324366	-0.02402278512585625	0.08292841890765264	-0.004496622350018298
0.009749330454035813	0.01557740578342852	0.06178245668889803	-0.01168692024243417
-0.003954201798750134	0.03092856792927457	0.02992086938115127	-0.01476622023816263
-0.001255742269978831	0.07725215032762968	0.002455576476791104	-0.01247910198041515
-0.01247906555910343	0.08155664655807962	0.02004718256031934	-0.003967557001913946
-0.02215391406267378	0.01525245740437598	0.0154243986029713	-6.87273253247648e-05
-0.01392560300550819	0.02611130079518869	0.004604076132965327	-0.003621932211435987
-0.0124883001756014	0.02529050671710339	0.004044594522477071	-0.012713596456377
-0.0160234205195532	0.008141536703121394	0.004840185025379227	-0.01590516138590002
-0.005115438308276336	0.02473950978038707	-0.01365875852394487	0.007702895034818793
0.01087040771406906	0.04914967031124375	-0.03998844837672125	-0.007037929301982842
-0.006465846071844259	0.04247199119352586	0.05509730519060928	0.01799725796969285
-0.006092975505747331	0.06465640547758718	-0.01524651339481771	0.01354585485229005
-0.01039515732597129	0.02626085832069691	-0.0571494586899573	-0.005590498587107759
-0.0060175280846605	-0.0110759749126688	-0.01155221389291516	-0.01122283699801363
-0.003602946480770089	-0.03721067949321717	-0.02123402816748349	0.0009161694152751527
-4.810172810476473e-05	-0.03538030100774314	-0.0457830019757971	0.003416998763383172
0.007503563620547576	-0.02717402351564955	-0.02945970562056197	-0.005569603573393331
0.01036338172855581	-0.03254533544467726	0.05565254922735442	-0.006810933767376768
0.01428044840283682	-0.07751852257258275	0.04740790836188527	-0.005761289091243869
0.01039801609465513	-0.0714744743149011	0.01247840500131896	-0.01006516893723703
-0.0004494096652717722	-0.02434427021890663	-0.006144664682428743	-0.007005309243552482
-0.0170961640372972	0.08440082564932648	0.006466734579557933	0.008521195733773253
-0.01001726762939404	0.09129476679743587	-0.00238270888242648	-0.002870316246506492
-0.01446552714458768	0.09670778669284828	-0.0192384677241945	0.003271620149255682
-0.01838445979351981	0.101874466183459	-0.02837325970320391	0.007658133091329577
-0.003448880141074469	0.07565328348701376	-0.01738743957298614	0.00489721570022001
-0.01247306805647584	0.04991010504233464	-0.02158877945484024	-0.0002829364123778135
-0.008971689177768947	0.03051068866573769	-0.02283791641286912	0.001586496341976478
-0.003050975269222047	-0.005342274640197609	-0.01167142731589514	0.0002350866406885161
0.01095715694243505	-0.01881128106359974	4.97390310686082e-05	0.001355588655195917
0.01205525503760428	-0.07115149972828268	-0.005513721718175621	-0.001755688054088888
0.01471947718939258	-0.1223234952835592	0.003762968499089056	0.008624280954893872
0.01114777740794626	-0.07883221972694046	0.00625982837216916	0.005356697724715817
0.002711751309430373	-0.04097737347582701	0.02780256292609348	-0.001914103568584212
-0.004535578789859998	-0.02919680063396058	0.005062059973834416	-0.01215858980435809
0.0009636722851143706	0.005334891408962544	-0.01893113930213111	0.002370583608156435
0.01222830959588896	0.04828749352214036	-0.04216905186781738	0.001608550374111249
0.01447190641060354	0.06682733880655291	-0.02318972809590693	0.01038436752081851
-0.008282874516712585	0.05833558553184398	-0.01110072255150389	0.01324190950880283
0.003320493512513011	0.05055318598416389	0.04028393035047106	0.01285429883862102
0.00477426595853287	0.03342720669042407	-0.009565147266015877	0.005080468611528835
0.008393339770055274	0.00170754696750093	0.02073455735801816	0.007705308115893613
0.0201600440054283	-0.01345843981986019	0.03055354802639989	0.01500089975973746
0.02605643953451091	-0.02585479539656068	0.005587707593600697	0.007444654981578115
0.01949480506938766	-0.05181036068770879	0.004220027172194721	-0.0019626459970035
0.01786269881059399	-0.03614762323678805	-0.02305463855952058	0.00472614062906393
0.02442848221794792	-0.0009523111582078964	0.03397254474766995	-0.01225239082229207
0.02251367147588486	0.0105204191381745	0.04744145648382857	-0.001506780537774551
0.01049275642922904	0.01343303085588057	0.0354430022763915	-0.004452952881364813
-0.01141022982714068	-0.03136215909363697	0.007771721579493924	-0.006826635065150594
-0.006893519363347464	-0.05449589625326021	-0.02434930852465836	0.002337391732441949
0.01149936756073758	-0.04654591654109041	-0.07248490079077172	-0.002901246784993313
-0.003185477695947903	-0.05028133620662819	-0.09116500129682201	-0.01500798017494564
-0.02021105248109896	-0.03020687921610973	-0.05802604678846607	-0.01099753465022761
-0.002695689862994497	-0.007316448976244741	-0.03289086463593885	-0.006558145123358969
-0.004570483858189337	-0.01833545074742722	0.04802634486648297	-0.001819048175189237
-0.004126948559653322	-0.01791318510983303	0.09436960923649847	-0.01397963650961276
-0.003244349948708451	-0.03162647458800696	0.07120235491769258	-0.004477462168906769
-0.0199397910014609	-0.004614904061514051	0.06403256059504765	0.007658433258113854
-0.01699920260442435	0.005276123616047503	0.01955697296944716	0.006462771357357817
-0.02178125236870013	0.01652913007963793	0.007993712870065041	0.006080998735008717
-0.02079855096647051	0.02221530193749245	-0.009690783030055715	-0.0004752994558681638
-0.02473574334553079	0.04244911835786763	-0.0004535976060071906	-0.006317346352147991
-0.006372743093706913	0.02656246609238841	0.00583157228766551	-0.00344766176709077
-0.003119981125518034	0.04927600035545249	-0.007633569612309004	0.01154913024355259
-0.01592855703595128	0.0343363523027414	-0.0116947351794584	0.01181023299310516
-0.01869267829691598	-0.01381364781106026	0.002959039556721992	0.01438185456591702
-0.007006367448782956	-0.01522719185186579	-0.002601022406171372	0.01325842754240114
0.002542398727294438	-0.01329460691463607	-0.008932614616454343	0.003874080115471271
-0.008934482117790982	-0.03555805641337529	-0.009554568499510797	-0.005796394445684935
-0.0138132966898624	-0.04954547716455415	-0.01165529476924142	0.003899438332089639
-0.0005081111038999111	-0.03294507328424305	-0.02174587686159353	0.008436922502612198
0.01327011238548766	0.005504261128540659	-0.01459198447911245	-0.003030632889663444
0.01307508874924073	0.01977042194895544	-0.02340852443783737	-0.005199601564454718
0.01532509431980797	0.01520907281164125	-0.001427740633109487	-0.01250185252311771
0.008960280973760667	0.007649812570807031	0.01171269896849497	-0.004536228365035451
0.005476387823573455	-0.01409941797154059	0.03356471215009334	-0.001145740066842519
0.01488858209727861	-0.03885003468553078	0.03275742263593644	-0.002490800722412134
-0.0003688337082284354	-0.04619206598797502	0.02176859681854164	-3.94942843470748e-05
-0.002662678415359068	-0.01140472170461813	0.01202331551521098	0.001411775648818456
0.003112418837441806	0.01210981740901872	0.01052642270208229	-0.003709314253547656
0.01033450556294702	0.02155863285119644	0.007498762728420743	-0.008768730828059118
0.01953560993794249	0.02322694256445175	-0.00965142729553038	-0.008485097193007746
0.01237028070925921	0.01939882200046428	-0.01128536459955525	-0.0149755711630377
-0.001053066601005975	0.02994471611697195	-0.01956358805703747	-0.01366670964915494
0.0007297871121847387	0.05071464127400981	-0.01905499678750837	-0.003957633386524278
0.004367772484543909	0.07529961870499739	-0.01472021265461687	0.00339472759083893
0.01097164000007104	-0.006203476707394232	-0.0009236744060160576	0.006608800458953634
-0.002284551148323546	-0.08044598206141257	0.01816048879807505	0.006288545600471527
0.001744951056215786	-0.05557273800317851	-0.01645807866176829	0.003557938134972699
0.01290384548989578	0.00730616816056933	-0.02713060157706753	0.001064027382510229
0.006565181724928988	0.01482130910912233	-0.04937938368529828	0.003249041686353839
0.0008450485867387736	0.02390103427337504	-0.04030433444085964	0.00518758328720604
0.001182165054317586	0.08777889344869629	-0.02268062858226035	-0.0007410197709941249
-0.006824584519159296	0.1380911205213996	0.002241707393137516	0.001439352736418258
-0.01464313805216624	0.0980578574490823	0.05347585228393915	0.0002519628271088143
-0.008705805118010362	0.05215301505021405	0.08320796296890338	0.007418533188979472
-0.009290610776322358	0.01195229153129119	0.02744060777306379	-0.005198066651096309
-0.01313753308404934	-0.05156798519366061	0.01307126806922151	-0.018201123349446
-0.006552557738411081	-0.07146312359028108	0.01563994825611747	-0.01738734475885402
0.005948839876261369	-0.0542886263937564	0.002848860721096897	-0.009981842401143639
0.005700636246554307	-0.02783602811872671	-0.006106169300752596	-0.01256738772114071
-0.01097007032226249	-0.01428549083517225	-0.01753141215917385	-0.004285755881300373
-0.01499651127790171	-0.00724667446517617	-0.02081808934377578	-0.001302621439811369
-0.008855017602387142	-1.461869082664075e-05	-0.0459894286584856	0.0065463471753821
-0.008451319349992705	0.007411455961396399	-0.02720432508892045	0.01559200957963856
-0.007194779205770063	0.03205110783234127	-0.004414030499901057	0.02449894200996735
-0.0002422536412387261	0.03466398222661283	-0.004814254866627285	0.01450931752195413
0.006158939308241824	0.03303732929923356	-0.00706380700149444	0.003571068059490318
0.01099781944029754	0.00659334597729959	0.03627127498551663	-0.003936242236986514
0.01578691654856443	-0.01183125750687301	0.08010858133673388	-0.008314997180496353
0.008880969478337542	-0.02031142497076895	0.02972337187644057	-0.002529748443707391
0.003246187736716492	-0.0298160626669281	-6.174947742914119e-05	-0.004059972057102498
0.005185074961189462	-0.04092740631924424	-0.02722125831336748	0.00594269198919165
-0.002674918906041304	-0.06331926666213511	-0.02509419479941245	0.006172545363654728
-0.01196770188491285	-0.04667530274846019	-0.007201138484060124	0.01353936973626583
-0.005612649766599316	-0.03364451601195243	0.02075249734928858	0.01412041983992271
0.008633712568215589	-0.07334334851443639	0.0213424395032555	0.00680870457063748
0.01566607985844543	-0.07199613963470995	0.0110153109776172	0.01467257234391739
0.02813784753203774	-0.007729924288174454	-0.001467810248118711	0.007914212932545512
0.01671602548894171	0.02826158215850562	-0.02017946067463792	0.009412909510972404
0.008496077410585482	0.04606289339564885	0.01285545667204013	-0.002464026721665227
0.007388808163010754	0.07034639352150124	0.001769237360988282	-0.01133832575265173
-0.008053072185175446	0.0840526146426082	-0.03132533227079981	-0.007907501097797169
-0.01234514974261239	0.122344114438253	-0.03103114417949563	-0.002960315202093292
-0.01735071925038778	0.07699369965764123	-0.02218229879868458	-0.01917899945704959
-0.02010386774458049	0.01084167500328608	-0.01782746387205741	-0.01965665628936388
-0.01265879249796951	-0.02687076380227641	-0.004256991671648428	-0.01819240750853358
-0.0003031746612677887	-0.07846879143290676	0.008105671705397867	-0.01181634694577416
-0.0014023331549771	-0.08747929921521054	0.01569205961743508	-0.004211049828838223
0.01054959178821476	-0.03289147501511943	0.001708258230674907	0.004540427991794284
0.008484866000881188	-0.02900047190678132	-0.02095736753894867	0.01401467655631838
0.01501608436887042	-0.02154102774561984	-0.01121122813286443	0.0048673348214547
0.01434504517533153	0.01089517317388899	-0.008274031539625117	-0.006086772880619262
0.01504453689598829	0.01245998309616936	-0.0128135452281517	0.002421351609053388
-0.007611553979777311	0.004389998704485731	0.01278169526112114	0.007296482789573452
-0.01995648125371086	-0.01777277670241701	-0.005212852369191587	-0.000826778028815798
-0.01684682588924125	-0.02350424155141422	-0.02089590696144609	0.001242597183220093
-0.02327209328106563	0.02645033417912205	-0.01048389808122111	0.009197188760053814
-0.03231073104448375	0.03136505415615785	-0.004678649967705567	0.005343589744956497
-0.03251005153311067	0.00372694654876474	-0.01091423625700868	0.001328135503795818
-0.01320830746473588	-0.01240885173138373	0.003554511962188646	0.002355971540730684
-0.003571655101157526	-0.03534599349681549	0.01649467706492729	0.008749308709160861
0.00967832455020678	-0.0272523009299548	0.02788006509492583	0.004341875166359246
0.01087488754312064	-0.02144677873335158	0.01483474452793887	-0.004041294888737011
0.005457253256467078	-0.02479839777303292	-0.0198357358097862	-0.008203141585394985
0.006755486868939353	-0.03123225227163039	-0.006909377012087712	-0.007574246772398666
-0.0006075239516131027	-0.04906867370333241	0.006069752686479393	-0.002689290452694637
0.004683550482100365	-0.03199464909878862	0.009773775911666468	0.003893943599241462
-0.01127483814600211	-0.02795257159737497	0.01042918207104922	-0.005708609495957823
-0.002999237539903107	-0.02076941861033585	0.01990764885024599	-0.01108034474218212
0.009347770956792864	-0.01902309239500193	-0.02048476861973784	-0.01268466912209715
0.002134204322597092	-0.02091356279141225	-0.05562363272040023	-0.01453267586849134
0.003119397064089932	-0.003641577600686261	-0.04216102572279413	-0.01163572181129127
0.0008758358301677394	-0.003414706096862992	-0.02931827832909168	-0.001804560827013778
0.009553434924774938	0.02455847964278322	-0.03131342324203598	0.001930469050584208
0.01671786244739481	0.03727595800945286	-0.02363492237935956	0.02140035116594925
0.02410019449335053	0.02073865220962673	0.002379786338371173	0.001430222472837329
-0.008686254325620087	-0.001554160800229471	0.03280045112586038	-0.000537396990193047
-0.002283167129419258	0.04104472639668703	0.02489634662080166	0.003461267791131678
0.0003430271283641673	0.06295652276077354	0.09244647030126611	-5.239999518199352e-05
0.008090672069818304	0.09510433118345597	0.08785014782387417	0.02304831175893263
0.02046645237752754	0.1247181853828675	0.06237618491641041	0.01929831666684748
-0.002206519151594699	0.1046677279385715	0.003595853673800341	0.0009702852481837568
-0.002494215048863375	0.02641094917331147	0.00441051160074022	-0.006384748651583024
-0.004896585414292431	-0.01325455503907112	0.01269166251757016	0.008378568694570359
-0.01229044159151568	-0.03007181847844015	0.01047812945294054	0.01341470659514762
-0.008571198227008334	-0.01823752087995662	0.001029103967904745	0.01292267407810179
-0.005588165098394922	-0.0001393948690386389	-0.006802000098047379	0.002092535087148105
0.01076501970803863	-0.03206409450849931	-0.005618777904582131	-0.004942715535360958
0.008283698113186038	-0.04728567441874291	-0.0199211531373225	-0.0128321259163305
-0.01207094730985653	-0.04437750194146995	-0.02650932616978183	-0.004815010696132712
-0.01049086305992708	-0.00765045206831302	-0.01449323283971768	-0.005392568853598532
-0.001917183304360527	0.01104746430336991	-0.01556777468031616	0.001508907058141101
0.008167737373906504	0.01192704241447674	-0.003640879644989534	-0.008666236923209501
0.007356533801883021	0.01319504009851125	0.009669067765380842	-0.0106821495729536
0.0118691619898933	0.02234119744070973	0.006475607137728603	-0.003332371605694566
-0.001271095798970692	0.02342485963116696	-0.004301984331479689	-0.0009546556226964388
0.007379878050071815	0.044453620350815	-0.01438104432763973	-0.006423740543110304
0.00776295069790408	0.02173256163494341	-0.009102323637722304	-0.003440910397530302
0.01327680078124297	0.01408692829210083	-0.01327705385776346	0.005186603453450469
0.008422788450609784	-0.005407700640882451	-0.01291362365864815	0.004949499931244129
-0.005974240551038578	-0.01842402254668842	0.001842074544116151	0.0007071469404898299
-0.01522758398115394	-0.007697192904393876	-0.011817775972383	0.01314770562793248
-0.017787285977124	-0.008002860265034557	-0.01475932234965423	0.0139487002673096
-0.0124443505843689	-0.02496777872188055	0.004849789728932881	0.01621511524913585
-0.001473328457854805	-0.02329503470200251	0.01019624025959698	0.005267160366227946
0.006872217476518048	-0.01277065864934125	0.03612179812131948	-0.003525777165074563
0.0003351076387541552	-0.03028642895988349	0.0300394553924772	-0.02428068273237615
0.004460721077452513	-0.01216569825702436	0.00644316786587794	-0.02821980519041633
0.01814861471092958	-0.003809056384416991	-0.02424448657109879	0.001490474365921436
0.00830333726987912	-0.02836615308898516	-0.04316907186227272	-0.005266719479623174
0.00336453557731307	-0.06505738528177371	-0.0575454762907453	0.004820780859341084
0.004186714311394672	-0.042878277623612	-0.0586545647788023	0.01033988106129109
-0.006893657147456696	-0.04665689910301262	-0.02172403752233817	-0.01345390431779187
-0.01439938746693192	-0.05912185865529217	-0.006601124432237281	-0.02629759926566292
-0.01220013625830383	-0.04123462185195366	0.05743974669636746	-0.01121070035716191
-0.009808153925132889	-0.01212178580601154	0.06617342034215749	0.00267777904526359
-0.008892611889493404	0.033710486273186	0.05009512986471602	0.01637899835536392
-0.006438891175908968	0.08535676783568791	0.06081640700644801	0.01641074310569838
0.01240101071386356	0.05848570975574281	0.05448594462568084	0.02252058016494004
0.01824539934239302	0.0248045494134343	0.01220682466413232	0.004542639384184101
0.01596942540922804	0.04564582630596396	-0.002036472763125521	-0.008920150244606302
-0.0009764771972058436	0.02312545006384729	0.01140252624988768	-0.007594297470281302
-0.005298706434043823	0.03466184256727853	0.02044308588581794	0.004043228379703449
0.01351208334637369	0.06131824634755293	0.01050386963392267	0.01198829758817311
0.003892815244993992	0.04637887047897296	-0.01079001515331606	0.01794499577663151
-0.006129798209316611	0.01957071499727147	-0.01936775787985451	0.01137483702560475
-0.005494576317895123	0.01400261503549074	-0.03001553397030211	-0.006685346258538393
-0.006498222062057551	-0.005566211345824215	-0.01486215649988457	-0.002800121682518601
-0.0006784448271598173	-0.05849385243174961	-0.02051574650422916	-0.006470834924235573
0.0005551729209003277	-0.07298780731568359	-0.04089895630683842	-0.01386787975695385
0.01459641317660714	-0.08406894596815713	-0.04532576928485865	-0.01010049488805529
0.02222256179152567	-0.08589258646599408	-0.05892539518504251	-0.005385039734979625
-0.004030180930104425	-0.05789125749102086	-0.07466085113156032	-0.004190075931957464
-0.005385073765610112	-0.02961039018899051	-0.01154760125348746	-0.009274748259420578
-0.0006556059700744073	-0.02004028550490458	0.04054483868617129	-0.01432179836956795
0.006037793128652975	0.004124274623425471	0.04306641868986562	-0.009204217688676086
0.002458768518913303	0.05656453153473431	0.0266919904356632	0.004472712816135423
0.005202767668155956	0.08240213462167525	0.002956330677412534	0.01137792034802116
0.003390840157392904	0.05652244344352682	-0.01289620354319308	0.006911115517762508
-0.01415872856444368	0.05182402893724428	-0.01158534023704812	0.01725481117465658
-0.01498557688104557	0.009301983347666678	-0.03039849856947971	0.013902039061591
-0.006613424659200728	-0.02475748942485269	-0.02183634348522881	0.0003176628059198299
-0.008277333426961684	-0.03282230708156397	0.008731637607156012	-0.002424091627161246
-0.01146730748426188	-0.03292928749949924	0.01641055064712925	-0.008037485674796892
-0.008096972805366658	-0.01804923736914967	0.04501904161031024	-0.01456239431224314
-0.007805976489754906	-0.0009431471638588864	0.05558273576620343	-0.002624549109613065
-0.004872743093944075	0.02232793009297709	0.0243023638054899	0.001531289485088897
-0.01066719445911078	0.05313265518343276	-0.01309849889640396	-0.0006708603481936434
-0.0139369811209436	0.06328025979484524	-0.04236983494549043	-0.003143618523232396
-0.001829107092338215	0.01086047214555915	-0.04326595250761844	-0.005811158913045575
-0.008854227968032324	0.002362004942511068	-0.01895058768411088	0.0135046491049857
-0.004443057221835349	-0.002358127044424103	-0.01700620126613249	0.009387281534220268
0.001487767274948837	-0.03579496297831347	-0.01467137501137304	0.000461266024419307
0.003792727756108632	-0.03167147205741479	0.00975713784221092	-0.0009795789547438233
-0.004211129707943846	-0.0006464332645235623	0.03476967994020772	0.003335246157539458
-0.006312380104620762	0.008465416295288981	0.02898213023042188	0.02708915492567393
-0.008091647540603224	0.001180401015139897	0.02956296531041471	0.01981087859231386
-0.007849599689765788	-0.002845024754644603	0.02131785785956626	-0.01089468942157503
0.000366756641070535	0.005342271777981023	-0.004991009172998966	-0.01323505988172934
0.005676341469978723	0.01907700842226853	-0.01466854937408356	-0.01296013053441336
-0.004875704943721555	0.01811795230355646	-0.01290777604393359	-0.0006476918318232048
-0.002468198666471652	-0.002447679262035627	0.005583310452494712	0.01124678411326928
0.001613428999064487	-0.04207323229648572	0.002041719144326023	0.004922791809096425
0.00312557349692339	-0.009324255052532161	0.003621904952348768	0.001836125679252687
0.01732938608302405	0.02243936221630418	0.001602364768826517	-0.01036696208184883
0.0167381325280472	0.01851902555715742	0.005872638214038756	0.001058204148272561
0.01622316481416956	0.01191127171716133	0.01120754214840864	0.002190844853667652
-0.002242552365453232	-0.006019329406517252	0.01053469503052304	-0.0008841604626410662
-0.01631875780657979	-0.04638991810602849	-0.00701271016460064	-0.01090637624664195
-0.008483206028127218	-0.04502305599936289	-0.00124603489447909	-0.008671199585273303
0.01348239013289501	-0.03174294604257059	-0.00660445045072672	-0.00586515494419282
0.02968095632632407	0.004986408618700513	-0.02057865975735746	-0.01633235145872004
0.01363990943257884	0.003889002170655183	-0.009577183202104673	-0.006623110390193517
0.01430979298211974	-0.01726073787867443	0.0005822621920517034	0.006046175976175055
0.03855980579574246	-0.08676966040867742	-0.01349968733593975	-0.00263060780995036
0.04727371356317808	-0.1175300501753361	-0.01918430461760982	-0.005361951932717129
0.01904155632498333	-0.08224565507995965	0.002430071795993265	-0.01227474821438553
0.004479450342878324	-0.05185449739896823	0.01607057861784436	-0.01037259094303528
-0.01184245402312127	0.01107661666143822	0.0216991012746141	-0.007117179186543419
-0.008092829680964149	0.0956005197926092	0.03811708425167681	0.01313986837073717
-0.005237736338717142	0.1355671212659474	0.02779670654923613	0.01707689654477886
-0.003760255169952935	0.1717716747358985	0.003014329184233582	0.008887981412154772
-0.01013968107894845	0.1628861094557481	-0.0154307040759893	-0.004993750829558297
-0.02919936976011676	0.1022848708446087	-0.04710503162973396	9.106260704331036e-05
-0.02301564860610693	0.03452174864488525	-0.05618125731267924	-0.007253803413956259
-0.01070791424873072	0.01737923176639663	-0.03919235503533676	-0.006979307240226254
-0.01309714934492992	0.002632927026341252	-0.02431026077946532	-0.005697709793073555
-0.02033456841414489	-0.0146039580573286	-0.02818302546685107	-0.0002956904290571388
-0.003664352865771161	-0.08554046786895313	0.02163561977485682	0.007977630731845186
-0.00725707336902747	-0.1276667091346202	0.07991301484042178	0.01028012746065933
-0.006710089119570497	-0.0936238440427411	0.07620078004967816	0.01490121647873343
-0.002784511684957236	-0.01385121913681532	0.04451161094895058	0.01665139660248588
-0.006449235490544228	0.04288598112056077	0.02697091051447183	0.002327588206198986
-0.01778601319342942	0.024561512691725	0.02059179054712464	-0.01620056724005135
-0.01589330512036981	0.02355591967012163	0.01640418175683233	-0.006179955515625154
-0.007820933646567892	0.04801207966427894	0.009673746189025556	-0.00366475285133599
-0.003078688299274388	0.04653556868397462	-0.02920399452967097	-0.002262175128575186
0.01225996026712414	0.02019645523292728	-0.05679924219260739	-0.00103662604874976
0.02891449178852928	-0.01698167192582911	-0.04609534744998021	0.002867113393376866
0.0192551027346298	-0.04084584237888327	-0.02495932264213324	0.006151056125258876
0.01288592963416848	0.02548705745495955	-0.01476167254520091	0.009659204904611775
0.009460084082653834	0.05545715191704931	-0.006987581496644416	0.00880599741873387
-0.000377915634153595	0.01958293743775513	0.0241165425889547	0.002738848531186075
-0.001894477932910488	-0.0668762663076527	0.04850688170315372	0.009732183128935158
-0.007206317214081791	-0.06997457150236164	0.02504108895255518	0.01073386235466487
-0.003080731967481151	-0.07912104899516723	0.007722572231734028	0.003479786483993219
-0.0005773600838770952	-0.04480992792767499	0.01457002130511663	0.001971726475484391
0.01230103950398932	0.02931912955660739	-0.0260259693434231	0.001778217840387987
0.008395261626139124	0.037817275985328	-0.02750488543173971	-0.004316493771499271
-0.01988329358404295	-0.02163990841459479	-0.0008633853086178504	0.005989898184870857
-0.02051148727391119	-0.06092141550502615	-0.007945492663030461	0.01128329472396901
-0.003600122841531984	-0.0784632524364275	-0.009339435396973217	0.001766307405869823
0.0003526087397396899	-0.09521212478195866	-0.00605560585897945	-0.007672235792937786
-0.004657961339718252	-0.09726902641635297	-0.006165414589057462	-0.004076578107093583
0.006313694822635255	-0.1056390160331809	0.02542195396478865	0.007037009112557122
0.003885653248451043	-0.1175607540831571	0.02552236295574834	0.007149815137470382
-0.002523343839792145	-0.07769452134776783	-0.009320145320924018	-0.002216018232077742
0.0001508829827991067	-0.0008407875927996414	-0.02066971347985769	-0.002120217821124024
0.002982002660582783	0.07226429750834552	-0.02255745228145493	0.003007445090343655
-0.003839209409272686	0.1396740065486826	-0.01704886036334745	-0.006166372359763049
0.0007593311654481877	0.1458926224663329	-0.01331554423534961	-0.01633771184812254
0.00972388968845986	0.1287848299125548	-0.001459795509611131	-0.01941380106606968
0.0006584077775952562	0.08311193142777763	0.0004050513963857528	-0.002662446730518925
-0.0007851468235483133	0.02705709344007326	0.01558630003089216	0.007774710287724081
-0.001421546522549662	-0.01554343804465574	0.01638966506205241	-0.0008088303366000635
-0.002765680683178705	-0.01938656244552718	0.003986926991103451	0.002978223309176607
0.01424207516328	-0.01138335689841984	0.001213834383754132	0.004120298651546755
0.01520273208228151	0.0176283187381039	0.004962586112424199	0.01494854741118641
0.00292408805749537	0.08193219579034224	-0.005637624372649375	-0.004122912540748275
-0.01064758806258413	0.1167948009629647	0.005735447222691471	-0.01698261519574421
-0.0111973176526573	0.1113466873141033	-0.006106857620780839	-0.02200854268943712
0.00346491915403139	0.1023815571722131	0.02596169243887021	-0.01813866993620357
0.01060943775402647	0.06936374383339118	0.01249416925412232	-0.007538142240398405
-0.004392844398947542	0.002705445634611774	0.009761567250024604	-0.002494765157668511
0.01428197208202146	-0.01814683876026135	-0.01276010235910044	-0.009815401956041473
0.01903145123536058	-0.05538602177251008	-0.05271769766613835	-0.01072484801166443
0.0166155352858156	-0.09237453378457679	-0.04626439890883507	-0.008939892377783015
0.00245111748058606	-0.0912294750770878	-0.003291717450002191	-0.01146252715855255
0.001007968388061398	-0.06586616096365672	-0.02626535000055813	-0.006614089547027275
0.009196342055938642	-0.009632397738344399	-0.01542669093833297	-0.006756407739315478
0.01410194485567026	0.01647877781644799	0.004401648924352543	-0.00231838154394101
0.006281163584729017	0.02169330969581301	-0.001737740040348161	0.004458995645201459
-0.002138189164396958	0.030113614968557	0.01892544171909772	0.02094647412199926
-0.004777646883278293	0.01718314396207967	0.0180261890295214	0.02175837301759857
0.01579129855023234	0.007408331710482663	0.01421694188524978	0.006661860280802605
0.01500862262206173	-0.01230778453411019	0.01484458470441324	-0.01488646068936889
0.0003508603116868808	-0.03508253028324418	-0.008767876670763213	-0.001805448050507868
-0.005398396722449699	-0.02722534421255532	-0.006023563312748691	0.01245990627164113
-0.006575985294335297	0.008616595541751948	-0.006883205526361635	0.01190154730161406
0.003041341277058693	0.01490010243566519	-0.01175080474747652	0.004125553066310381
-0.01351707388770004	-0.07566715717073927	-0.01396459475981026	0.008998010886767322
-0.01464961759135261	-0.06667155439675045	0.01204572861700745	0.01656479190698862
-0.01693592887168732	-0.0749899363062506	0.02140835159316143	0.01803448597196096
-0.02003810067968169	-0.05363843272389721	-0.02673787755025541	0.01067413968463037
-0.0271325365536089	-0.0209465214544801	-0.04260593685118384	-0.009140677178409932
-0.02040554985691157	-0.004557196265056847	-0.00347570887757936	0.002154768209727959
-0.01327578614791709	0.001755451152537265	-0.03385017067115631	0.007421426090286287
-0.004838817800377036	-0.008125007433305426	-0.01685800842482229	0.006054296777800055
-0.01574734943464824	-0.05341909888574068	0.1096886751044796	-0.0155577935500981
-0.01790940365750745	-0.05851882290687175	0.09111549027782778	-0.02616109844228502
-0.01315534854855078	-0.03757618685066491	0.05341029528984525	-0.01808769434094347
0.002753919897307056	-0.06497217908597636	0.03033717775023741	-0.007487105146455366
0.01415174750816959	-0.07423012461411152	0.02322475083872296	0.002500392901383079
0.0181752345606957	-0.03013559898783555	0.02608133344866909	0.01878858325378015
0.0005023726943634542	-0.007969311162614255	0.005849641313037359	0.0116129033125694
-0.01442833937331153	0.02125381353098959	0.01385460580499638	0.001854403811757618
-0.01264981703440612	0.04590176576598127	-0.006193128980077765	6.192213854438555e-05
-0.002483708315896192	0.06045445220126517	-0.01143248132192995	-0.00815772777282329
-0.01481934247870653	0.0809812835348369	-0.01077042791849029	-0.005110946360079856
-0.004529426435221884	0.07523868230255666	-0.01487757084466306	0.008156121418435948
0.007245506340820003	0.04041503514593704	-0.01031272040417919	0.004032113122598069
0.01600880000468258	0.004537360111543626	-0.01530127608532264	0.006089576492435013
0.01667522845957591	0.03106262946153138	-0.02546049746168156	-0.00283193796595354
0.01597344613270237	0.04742853702581378	-0.007187591117945432	0.01120700777526324
0.02201332490183304	0.07024570547398996	-0.007752722388982612	0.02035270915488165
0.01284620375243609	0.05280359201446123	-0.02757745053657022	-0.0005787549735351591
0.02172754015558059	0.07146370240546973	-0.0128729678917174	-0.0008744835400827347
0.002583799849025313	0.0120058785806629	-0.03027828894532841	-0.005426453113789594
-0.008051614234790127	-0.0009343938999749127	-0.05898508429919728	-0.002315909662290306
-0.02084267907959825	0.0008513006217324658	-0.04000097065116213	-0.001659750456542742
-0.01321660576104253	0.008205750062373741	-0.03835624387683143	-0.003842008915715617
0.002920694055666429	0.02986165390395609	-0.04449934496375613	0.005321110815186549
0.01082509080776687	0.003203169056781818	-0.007602249792052537	0.01696269837489503
0.004556251300505676	-0.02092451180881555	0.04765033777246799	0.008547757273200472
0.001090152312499166	0.001037693071178458	0.05033699710241055	-0.01027777365877075
0.004007266871188396	-0.01288528510001358	0.0361966140403173	-0.002303541437574629
-0.004551322717323987	-0.08806454875830033	0.012646278220824	-0.008443141812253944
-0.007527789593585286	-0.1192871343297958	0.01711769413930776	-0.009097849891577569
-0.0035669861330064	-0.05480691411931544	3.141308884007971e-05	-0.006514198371327013
0.005252127310469287	0.05524340628985245	-0.01068645850347931	-0.008577887735330652
0.006352636424412241	0.141838290896919	-0.002439397787694128	-0.003106862030732137
-0.004689592611131323	0.115102769936782	0.0321118024304835	0.001488850698847766
0.004912485256119366	0.1412483334756064	0.0268098104381869	0.008818730175392024
0.01253544628533375	0.1229668875125503	0.0007164234065918753	-0.0004510095556232377
0.002394433718261486	0.05054440347347201	0.006647414188116268	0.004500103153696016
-0.002936818385171866	0.01614807497001694	-0.003716712263494089	0.0008331942634517292
0.01228794967183858	-0.001593054170847513	0.0006536508556221211	0.004349341536208248
0.02121285029028085	-0.02082922094765535	-0.01089765553738205	-0.002590867899218826
0.01151174332903653	-0.04528694432483468	-0.01625975410586037	-0.01497719922680698
-0.003701082810743822	-0.02833898994977286	-0.01445372309276881	-0.01703081985434022
-0.001237758520483795	-0.0203321090814184	-0.01210453088245159	-0.003342302188956072
-0.000367276783544674	-0.006206372703387936	0.01155143372894073	-0.005558350482756437
0.00441575588835335	0.003794660139025046	0.01138682814083235	-0.001904198932714481
-0.0005009659498462169	-0.02220099964773969	-0.001738823766263465	-0.004588932415966062
-0.02224583607222005	-0.1012151215453096	-0.006372738717105747	-0.003574530903661824
-0.02152861601681066	-0.1146720599289124	-0.003607414605801203	0.003460164267720371
-0.02015145334638408	-0.1044066202418844	0.0001117898619024577	0.0127785489433254
-0.01873075314282414	-0.07625943417810432	0.0002678023692658972	-0.0002543435913808172
-0.008829788977462283	-0.06163573697675298	-0.003513826948401624	0.003584814912110002
-0.001590558282902586	-0.04884217135639759	-0.03696204329720221	-0.006314255669863655
-0.002592241498867939	-0.06243857904131763	-0.02370588349330796	-0.002421134700657665
0.008732960022192442	-0.05353766382137175	-0.01443045741439832	-0.002703478008744703
0.008726105537328027	-0.03663667006943266	-0.007344320187636038	0.007274987366173188
0.01083755913378838	0.01042548835849162	0.03739609241331426	0.008796439706092686
0.01669809900976328	0.0006030928415706265	0.04978417772201126	0.008804346392903542
0.01042205887048627	-0.01263350676067447	0.05082658153549659	-0.005133445063230857
0.002245693054384216	-0.01079096070895011	0.01933009551993453	-0.003477314759149597
-0.007146857017530883	0.0117914058816021	-0.01407652247671715	-0.002513322283008252
0.001405232471813393	0.02980154927452118	-0.03328753391307013	0.00499717340026823
-0.004767688650005289	0.03022212813634642	-0.02325923439582548	0.009556297746210671
0.005154806853657729	0.04619667282603515	-0.01402285704845051	0.002844823987008857
-0.007480366931907657	0.002110872156570064	-0.01668824759658758	0.000728316399097376
-0.0068320865341164	-0.03676267415850869	0.01035819454154592	0.003942110733162776
-0.004885788095357934	-0.03789896217801758	0.03660858517848276	-0.001954073874785274
-0.005229187208248951	-0.0136880029243394	0.03475531918849622	-0.01703077378932068
7.696920143341276e-05	-0.02894845023107918	0.0352579278949217	-0.01950720621600732
0.01054161360185374	-0.1027347674928318	0.01475009185234414	-0.006258141923907403
0.005826029131428378	-0.09233511203265843	0.01208738627847501	0.005971078482973804
-0.005395915564628397	-0.02193263011887722	0.006158236412699671	0.009317277832896449
-0.01099443474237747	0.006075794630925601	-0.006048862356920728	0.0006999922893905446
-0.01010314329096579	0.05965263949194154	-0.005540885871599674	-0.01132611287272025
-0.003807793803778115	0.0595018338464082	-0.003111859882009894	0.01447355889250548
0.004951134290929946	0.06308826671968212	-0.01033093760861098	0.0125596517427103
0.007130074430431302	0.1034624466987587	-0.01966025992364669	0.004873399529066017
0.006879921014896559	0.06714941795335204	-0.02746024764630746	0.003295678828262612
-0.01106587979320466	0.01218123614694162	-0.02000381072462002	0.004263898474377798
-0.007366278422066221	-0.00967574297823939	-0.02377206253057811	0.01380441569792789
0.00360787848706265	0.01801714071575278	-0.005398792000694266	0.0001549087533425465
0.01699612063768724	0.04096432827271863	0.03513350010129326	-0.01607749791233101
0.01725860128140197	0.09554300095783967	0.03725967887225305	-0.01643443323534865
0.005375934945539414	0.1579272646112756	0.01793666817470027	-0.01073272446112986
-0.004753336611149101	0.1021597020829468	-0.0007690754104771856	-0.002746396231901823
0.001750157804225998	0.08485952038605007	0.0008905207862416309	-0.0006536944992138001
-0.00332643078924222	0.06340896718280896	-0.006166949759013723	0.00653517190418002
-0.006723200694046437	0.04419454735375877	-0.02471292509698772	-0.002014536335180562
-0.01033505932328661	0.01096070835904826	-0.01899128541983997	-0.001560788865423337
0.0004964447233589437	-0.005603339928158261	-0.00800719309510033	-0.007916923103591177
0.007021401770618527	-0.1044497772149531	-0.02956300832728709	0.003453134186243672
0.01788704207321722	-0.1476285996564793	0.004603470396475768	-0.00484999548665951
-0.0005819676274583915	-0.09781465552885409	0.01522191287845094	-0.00514976685243093
-0.003523452881170151	-0.06533020968115012	0.009388640616909496	-0.0045329801796436
0.01688583283616839	-0.0242835306344726	0.009487315911194909	0.001079558538116523
0.01013929185788151	-0.0462555426829891	0.0218884329993142	0.009922869255212099
0.003830559961518579	-0.01090695348727427	0.0214299191883267	0.01256212595492744
-0.003145770345552713	0.06347614291035475	0.009255778899135319	0.00564866184193686
0.00135756298629866	0.1028383581964255	0.002957932018375135	0.001159350220059172
0.002420161905498706	0.08044042379324762	-0.03791983414405631	-0.00175059466646752
-0.008736037553029293	0.04295140725535825	-0.02445725031442595	-0.01142768531434203
-0.02136872285145108	-0.006858172910913892	-0.01950958841184057	-0.0008401765308656247
-0.002233230048043137	0.01772149009245528	-0.0312951059496554	0.002825980266480304
-0.01587688689137407	-0.02070666381504857	-0.00908367433747174	0.004354655254903644
-0.01533047414421992	-0.03365855387357614	-0.03843815339863233	0.007271671406740676
0.004111240073955658	-0.04743909497031808	-0.09301401175482805	0.005566324437197926
0.01551846864936074	-0.05297820432307353	-0.06841151153149626	-0.002431903726097669
0.005654038492134563	-0.05041021874111092	-0.03421487725462562	-0.008565671383254429
0.001559406215000075	-0.06388170144717265	-0.02916803696980781	0.00292289405313885
-0.0006358438723551739	-0.06978782880434778	0.02906682722410039	0.01091580477261701
0.002072723854282438	-0.05185240272232385	0.1198487594000517	0.01123977582922088
-0.01096683043613235	-0.03797241431982544	0.08198187641456776	-0.0007481524288499833
-0.01117500773811376	-0.02822821677056614	0.03544165653920658	0.0001112283674219001
-0.004656678744739823	0.004051313966183214	0.01614760588372319	0.01160914586495123
-0.002371448800396038	0.009929034203381518	0.0504010008600606	-0.008203504394644012
-0.006175309153960014	0.007721679341739716	0.0386663442917217	-0.01052057458650371
0.006436921610516275	0.02009014871488872	0.01603573547477562	0.004731452977144335
0.001262753409791875	0.04971446867368789	0.006382730906261349	0.004599858785653027
0.002487466527827296	0.05365000855453101	-0.001792357109021008	0.001943136230257726
0.01272178593280581	0.05245627811922079	-0.00537943578367047	0.003314415211107445
0.01147413023962428	0.04186791905712509	-0.02937461026394815	-0.01301806908646973
0.009124113123771092	0.03022338858095915	-0.01744494503635875	-0.01285599646298009
0.01356807753000786	0.01244296704054873	-0.01728947157326692	-0.01601207609398338
0.002219180106618154	-0.04744802860405661	-0.02017617222787844	0.00506837142229948
-0.01050623525314483	-0.1043331740229727	-0.009214602880911891	0.01797589752006257
-0.01484612432536128	-0.07543120356412694	0.02443754626002335	0.01607697852843202
-0.02181182639119152	-0.0517681680298771	0.01452585825878415	0.01216552592779925
-0.01522772552386403	-0.02419031322719694	-0.01576000367026969	0.01040353223539698
-0.004787005764994243	0.004769906911737249	-0.02407943441332902	-0.01036700633257428
-0.003854683067032978	-0.006285115414911197	-0.02291797307959738	-0.009484294942241881
0.003669712721860899	0.01877515581535763	-0.03369374520326996	-0.008996561203708448
0.005229810913964865	0.08296387524432811	-0.009405811199760078	-0.008654222540327853
0.008154964894159176	0.06804385970605636	0.009728400669448783	-0.007085292411047263
0.003396608796275931	0.03222119980139071	0.05555272665015644	-0.009429947012629714
-0.0009408538693062934	0.05081449975206116	0.07115631715700953	-0.007552908419423353
0.0008936489315457991	0.02369651039035637	0.04333335753973654	0.001073737392208991
0.004064697411760474	-0.01366850534668717	0.01092440381407143	-0.00550060324130825
0.0002625874701440055	0.004858121790984314	-0.009174962272644067	-0.007823263003005659
-0.01022896557150366	-0.00539537261302443	-0.01845951247982797	-0.002733239585320482
-0.01752132610655457	-0.01007013706584932	-0.02416110925954815	0.01430478559761765
-0.01033734759044409	-0.01993161699618481	-0.02524357634695139	0.01085371658287535
-0.005677693871197602	-0.01689866026643006	-0.004263639966882805	0.01399234748127348
0.01870425870041273	-0.001722358282833355	0.0007189901037645931	0.003378390337632532
0.02756399471782638	0.0107042013621091	-0.01391580913225416	-0.007795056129977017
0.0223471643077072	0.0009410801605916327	-0.0161726896058258	-0.003694820980788029
0.003859328627754796	0.001509872091636788	-0.013477235375578	0.001501335668276576
0.007552651224858151	0.0199237907385624	-0.02033882323720787	0.007745101196449394
0.01016921332336132	0.03140452937472224	-0.02071664815080992	0.006917298645480483
0.006747455431778536	0.01154951776747648	-0.02839251207991486	-0.007767970665121323
-0.002761230665165294	0.004746402532236563	-0.008118280694966817	0.001639211375432843
-0.005492922738770411	0.02468071894044816	0.01547967549779265	0.005394909210652249
-0.005630093488509179	0.05414765090622662	0.001589153268926023	0.01874772170368234
-0.009372372178563588	0.05609861573675429	-0.009728503308240821	0.002621971596955289
-0.02616440218027276	-0.008716632256139348	-0.01887442334046177	-0.002302317574826516
-0.02169647152320828	-0.04660706241804946	-0.009078970830376039	-0.009412782799126062
-0.01796687899985154	-0.06883485955174067	0.01613822078480282	-0.002297142757256682
-0.01835129001252607	-0.1059364868604891	0.03501433529971369	-0.00586329010278348
0.000651876814698673	-0.09299660501263957	0.04856429158911343	-0.01479955138587222
-0.006116206639245053	-0.04117858956522952	0.03422480370919868	-0.008486833337434885
-0.01752335439515661	-0.01828568765053258	0.02134626065737544	-0.01218976516265844
-0.002087569732847575	-0.02020199769632918	3.542779565876781e-05	-0.0115707476926691
0.01004960426145741	-0.01666126791557709	0.01240201172441161	-0.006287181696469453
0.02260989460595242	-0.07208671652252267	0.004492418505383976	0.004233759535591823
0.03563370402734941	-0.08576807870742952	-0.008126747187587971	0.01318481139912207
0.04087541570444963	-0.02868151250417027	0.00603510612615042	-0.002333420371407382
0.03568210593389224	0.009639158710646523	0.02331094049930545	0.0004911080843452099
0.03033851032997302	0.05711634177412539	0.005069475492829266	0.007357376642017438
0.03388965066653762	0.1426636787266128	-0.03696847900191354	0.009861758391684875
0.003839174028764539	0.1768646245801037	-0.03400579945901934	0.002511735632275205
-0.01187422892911375	0.1551856052855017	-0.01229056331078873	-0.001420144667794151
-0.02230974801555333	0.1083534198318487	-0.01512497033413214	-0.005983685861332034
-0.01327877769184385	0.08318831383838132	0.01976804018396405	0.01267366334176663
-0.006432074660296632	0.04554409035116889	0.009523349567705551	-0.0007205182167102126
-0.004412413877471367	-0.02983442652690917	-0.01119578701339033	-0.006307888164762748
-0.0137345682134252	-0.0711738258991562	0.002805596522939615	-0.01426627800289703
-0.007488508195029624	-0.07188510034805075	0.0187111124237473	-0.004012618599145137
0.001274174985515117	-0.0501244394594087	-0.007444964573943645	0.0001712395770328354
0.003823006475818809	-0.02443842223097024	0.01076707977713708	0.005630418014969187
-0.006719946065939518	-0.009526829156878259	-0.007919234587359134	0.003473299802788756
0.003297385279891141	-0.009657120553670226	-0.02071243669722091	0.004417783186342515
-0.004022105073366249	-0.02470877897297095	-0.01265926559819505	0.008784390190490095
-0.006244372798703777	-0.04335489404735763	0.007390846419262163	0.009456131803032642
-0.003353936161652451	-0.09105351463422443	-0.004646452755135381	0.00347024700102397
0.002948949500008205	-0.07865226221533915	0.009384664241205926	-0.003842733616635051
-0.005899020226624125	-0.05556321943071676	0.02515200295473444	-0.0001239016383801827
-0.006660276295911868	-0.01463804636296196	0.008650118281547289	-0.008737860042608923
-0.009327536084466233	-0.006852759623953335	-0.0127998223962095	0.001635849776696677
-0.008962394588090726	-0.01251498561034375	-0.01581021675703695	0.004762027048607932
-0.008789188452024482	0.007136636575649339	-0.01592611256510908	0.01157394787179839
-0.003725374497197155	0.01509495111584668	0.01929857132508121	0.007294053518911903
-0.001533498441338128	0.03894680477444806	0.01137793750404948	0.01227190090834039
-4.752978417320379e-05	0.01496803370789104	-0.00610550614384273	0.002866291745395625
-0.002906006580658393	-0.01871296062561596	-0.0283358079235145	-0.01434228299492298
-0.004953964170890723	-0.01729026244501395	-0.04333160283180765	-0.01772280530959681
0.0008586322704947839	-0.003635084048219005	-0.04041775408014239	-0.01290179988871886
0.0101314166915362	0.03205309981008867	-0.04009178264662699	-0.01848524333904086
0.002284570910355694	0.06598738350152178	-0.003382236334657432	-0.01460492151424509
-0.007247328720874309	0.05738139334269421	0.05908784176823677	0.00643535662252296
-0.005788698966420753	0.0680317072444369	0.0650741423162612	0.01285269373340377
-0.004289816063639582	0.06281188249898836	0.03345474702437828	0.005814060300414213
0.00230529615659044	0.05996227987999585	0.01229490316471044	0.000912017250992763
-0.003396954445538939	0.05019076882358217	-0.02250442633643488	-0.005245329921179384
-0.005707154158115741	0.0474862736553146	-0.0230861559810875	0.005051941553138743
-0.0007625755250305856	0.03501599858182805	-0.02803908547322696	0.001856021413728711
-0.01446280858744925	-0.01768506046413828	-0.01216400803927792	-0.0005858705181114841
-0.003467607454607176	-0.03476324404053238	0.04624559466273152	-0.006913856258284192
0.005033367894197889	-0.0604050786170105	0.05106392545691778	0.009610955241775417
0.005204921345101909	-0.1026740094767019	0.01244602616422783	0.01000857546883716
0.0009758363704485112	-0.08069013414996115	-0.02987870334482997	-0.006452913387264607
-0.007364285481172766	-0.03221698574501578	-0.04344178990302298	-0.002809458055298168
-0.01314362891259662	0.01330647606473941	-0.02478820676610161	0.006640337750636528
-0.0165015767218534	0.01584101647500331	-0.0169337617760146	-0.000323823589276786
-0.01431503378574008	0.0008179824924520738	0.002306115420225287	-0.002480217394255428
-0.01007979885128956	-0.06622930538588863	0.004817041678572311	-0.00100017549648412
0.007744861275583388	-0.09724238410763214	0.04116602100378857	0.002670472697225832
0.02860577455378845	-0.0510406990237947	0.04392602654657776	0.00232423408746832
0.02532522710815261	-0.0533498333633889	0.03270486618965296	0.006234140783324521
0.02751733505028613	-0.01150695403155837	0.0430480940832728	0.005876648433550278
0.02109348215444597	0.03808243699360017	0.03676676712128963	0.008665315519601344
0.01789477665648789	0.09235770991783944	-0.003652563742945159	0.001820523684993694
-0.004556080783298515	0.08383661533182732	-0.006957149416217727	0.007145127474778803
-0.006856127335913671	0.104103646208841	-0.01500444835855052	0.005777982327959472
0.0006152014371221749	0.07223414271466425	-0.02404476567146181	0.005245548467032466
0.004657312499217426	0.004765405619915229	-0.03831106574725283	-0.009003991222012371
0.005461212542862558	-0.06161277349006695	-0.04450302789355924	-0.01189801924341216
-0.003406874108748559	-0.06731712495660504	-0.03349076497986792	-0.007033120530527539
-0.01322941930989609	-0.1730355180526727	0.01407780483473278	-0.001893510263167868
-0.007978174260311078	-0.1756260542681601	-2.069491693714451e-05	0.01014195313721698
0.003793571513403573	-0.1177437810789967	0.005795801626132686	-0.009192497098388585
0.009684004719063725	-0.05029040611554821	-0.002046084375792382	-0.01234648978006288
0.004596125082998056	0.00382318232915239	-0.03215623965165141	-0.003243487330457047
-0.005108050512279608	0.06744877099963212	-0.0377014177697895	-0.0056679037697008
0.004359305715670331	0.1040197270443486	-0.02296823216817896	-0.001481820056226312
0.001068598910630293	0.1097261248402073	0.01063697256695279	-0.00095291311050519
-0.002835981805447914	0.1298753229530835	0.005577259258600887	0.001725123944064581
-0.01326564269186165	0.09392274536368314	0.01015138820785116	0.01197393034246977
-0.01076778554410231	0.08758014522165181	0.014238478086315	0.009566488081164934
0.004922882933776239	0.07435902094883692	-0.007376540883595999	0.009148528806574466
0.005455646112247477	0.06197668584277479	-0.03876913466899339	0.004135246383323413
-0.001629177757107389	0.06578469176655122	-0.001234951948931749	0.00153371535414936
-0.003444686478589297	0.04013161158753727	0.04175648659580681	-0.00120293936788848
-0.007093001134993421	0.03886113773211225	0.05578866243179375	-0.004551120611146625
0.004018708349840501	0.03954185526352781	0.01949523011447268	-0.01407013322479628
-0.006232760725451888	0.006634772038365624	0.006694939288028291	-0.01728944951071236
-0.0127394097165131	-0.03273883751627006	0.0046370151258921	-0.01096370848050389
-0.008915466075471888	-0.05073541976100295	0.01056334235462909	-0.01207358710160966
-0.003315862708213642	-0.03121335432809402	0.0006833522187503333	0.0001162768026628461
-0.00459187271525602	-0.03913761370917938	-0.02219865873048567	-0.008494897964036328
-0.002319867873505545	-0.03297314596796944	-0.0239359637607747	-0.00322445130154683
0.01464120581869975	-0.01624933319686708	-0.0208913998676877	0.01407718310862971
0.01404637141884124	0.02910630203986614	-0.009968428649332173	0.01177187546948115
-0.001417138073410683	-0.0004854610637374635	-0.01150650628001625	0.009931671329685877
0.005034701722450678	0.007258847028548954	-0.005174608273188404	0.008487129661675002
0.008236357468165175	0.01381164767088738	0.01975640335898739	-0.003451886163445389
0.01858538764398199	0.004059924674743267	0.0375236899535323	-0.01163182459721999
0.001105249020606005	-0.04590892454098801	0.02670413263884032	-0.004564646173499212
0.007202930489143187	-0.0749927354165195	0.03181354561944598	0.009553588794632896
0.004984952888902154	-0.08232158671232752	0.01244845333678	0.002209635752496002
-0.009258129303153451	-0.113671027643445	0.01123522126381143	-0.0007050394572247127
-0.001998612751697073	-0.09901102746644214	-0.01310807381345807	-0.004597784877470276
-0.01034080869198338	-0.06766218691728379	-0.05777733160037769	0.005150023969275178
-0.007144645344251013	-0.0296774105631093	-0.0543401150750065	-0.0006840144339074574
0.0138098225918609	-0.002053697869499742	0.03027533448569817	-0.0007701870804531364
0.01030506025323026	-0.01559960704196429	0.0563855076375317	-0.006726029071892167
0.01764671849723806	-0.0001634777074871214	0.03730575515227461	-0.001944782081805698
0.004840939491787631	-0.02630227546761801	0.02609860449958784	0.003822793226408759
0.01639435823098476	0.02471465671744605	-0.02058761318988914	0.009988697392940258
0.0135881541293438	0.06096879931531757	-0.02623629466714454	0.005018420688222482
-0.002103201557092637	0.06175860003051653	-0.01035575700876364	0.01672874127615864
-0.006435026138329217	0.0643603072543649	0.004237076660792639	0.02072120845608729
-0.01387454741579584	0.04191874985807304	0.01403887171107875	0.01460067750179084
-0.01452760144160732	0.005885770473765704	0.004373302833851651	-0.00403737415191772
-0.01159733035129617	-0.03241256099189292	-0.01194284772218102	-0.006643347011685786
-0.007144171058294116	-0.05441259700243046	-0.03646208524709987	-0.01212160496651979
-0.01801378748221255	-0.04865230527711107	-0.04260703172612595	-0.002653370547888068
-0.01615400499769845	-0.03926027914530352	-0.03806703659010267	0.0179758368595377
-0.007969517773299691	-0.02636473316096498	-0.02526002882738551	0.006129493490463905
0.004788284895667067	-0.0231481006841218	-0.01859680375719272	0.00670904923193794
0.0001244550268125834	-0.01080246875847701	-0.001013030055485263	0.01330770230480769
0.006839265140953819	0.02342753675893817	0.05054452453860272	-0.01515799335489307
0.01947680496234121	-0.002428296752562313	0.0425327086881515	-0.02556272898495595
0.02336585118504278	-0.02550928323725129	0.02032892204743118	-0.01565329890469344
0.01856839852473161	-0.0213122312913879	-0.01147912832357771	-0.01799775738576338
0.00660504326107434	0.01261226503892451	-0.01759003471765902	-0.005042962225726613
-0.007040166416257115	0.03205233181039963	-0.001643901684823415	0.01141424811533941
-0.009652079737941134	0.06825537467506805	-0.009911710406989295	0.0035014734354954
-0.01540947000894897	0.07805600005173391	-0.02546709670379277	0.003136481009893713
-0.03387474419273211	0.09214173186416838	-0.02723698943586	0.002429103580283266
-0.02344382090789179	0.09580675168516349	-0.0007570661397300934	-0.007558225307323139
-0.01165293530952924	0.04405641874071476	0.02884598352514356	-0.002621948571912187
-0.01025512476185993	0.06993902957920184	0.03516444698666048	0.001996231561917476
-0.03136285293685598	0.0399721376416273	0.03837471343091192	-0.0003267039135910001
-0.012158185447505	0.03441582052018088	0.009354867950064152	-0.006460949130373945
-0.007382307694773677	0.04381088699040835	-0.02393032234320593	-0.01209391712375683
-0.01279934298144398	0.01243935332239575	-0.0316780902083912	-0.008612334285223735
0.003792555841157597	0.002841936708320802	-0.01479646884098127	0.00157543474074402
0.02455771778742979	0.016299935979076	-0.02625848698618177	0.004498279561317489
0.02146882373833938	-0.009097259379649766	-0.003516848531874125	0.004387098169813021
0.02894801877728194	0.003019707346878809	0.0455155237746247	0.00343570701254997
0.0151851305256581	-0.003448025378818627	0.003633270849270442	0.01195324211900085
0.007396741842064545	-0.003085767927784677	-0.02316864365173662	0.02354423302161055
0.009905655425541204	-0.0257456027010343	-0.01494822625489943	-0.01214196714985819
0.01424478222046554	-0.02550937449094713	-0.02137507682591489	-0.02852134396714031
0.005629709487349834	-0.0476892876902323	0.003950419640291141	-0.01096483784145191
-0.007159434493151652	-0.08917561613062924	0.0290305233933692	0.01196159783677679
-0.008204985346764759	-0.06894097509964146	-0.002690389956961635	0.0005671664022576326
-0.001331400218941082	-0.04598068472161373	-0.01050241639029563	-0.008507399718217868
0.005338887212366011	0.0004779292829953579	0.02000973534417236	-0.00672151433794832
0.007232697438128969	0.02610646999503173	0.02849686890825824	-0.002189582808122996
0.006690162326952285	-0.005070414120646397	0.01975001455854345	-0.01038177370256007
0.007346269014789793	0.0009753018392340035	0.02081456071602102	-0.001079354130212013
0.006682156029419943	0.003464189370845575	0.01462696578066245	0.004879846550932156
0.01949080912997226	-0.00778443148008692	0.01980251946271125	0.009585551554829194
0.006391054492719428	0.001786316847100382	0.0195049172838272	0.01688387712299958
-0.01441905618142467	-0.04337825542353817	0.009865091912347967	0.0008164287931633941
-0.007924782276138308	-0.03770431896835654	0.01125042942598925	0.005205443403087207
-0.001631085600474328	-0.01364831593551659	0.02993304264934917	0.01222120021043686
0.000354729897714575	0.003536230794786518	0.01383546712310484	0.004290005987760043
0.002792643197082958	0.01879724871920636	-0.03791809326848362	-0.006126454911138038
0.002213211943886615	-0.01197193961536068	-0.0006042721339242234	-0.01720801824899438
-0.001073199597028857	-0.03856130522053518	-0.01199043100374214	-0.009508483516025956
-0.01683888011667311	-0.05201508208117531	-0.01955910321327036	-0.01137641124116856
-0.005704429879528692	-0.02411467526117799	-0.01667409338082156	0.0008055298334323955
-0.002564683468525021	-0.03386766866954561	-0.006491753186069435	0.003352071122071792
0.008801545078760272	-0.05449354970429221	-0.02376207309153044	0.004810339287569236
0.01524746289714986	-0.02710410577262901	-0.02170414069127138	0.007481389772735705
-0.001624542273405208	-0.03631087981022567	-0.02051196758157669	0.01120259371336017
-0.001102561250743036	-0.01921769386092892	-0.00897094806121233	0.005083475593314589
-0.001353327020012718	0.02979809297237549	-0.00540497676189888	0.001410440092690142
-0.01149089380670805	0.0498018523308475	-0.001504144967558398	-0.003926500440135842
-0.0112988457925145	0.08307369099630336	-0.0002987096572529505	-0.01514621180415353
-0.002702576695840999	0.07906595115998878	-0.007182980425164053	-0.005929827992037496
-0.02880723201663871	0.02843837530480305	-0.01350446359685027	0.005648962042845821
-0.01312862516912016	0.05018574841043941	-0.01041371012061613	0.01417480413466641
-0.007368355909816908	0.05738539242939044	-0.01026436593724323	0.01891201490548537
-0.0103735935343864	-0.01594113245719951	-0.009042408421717748	0.007851812931687914
-0.006419575920704187	-0.06943014970681155	-0.01651246543561583	0.004573763296926224
0.004774143806274589	-0.02849110583412609	-0.04391037360694632	-0.01414780077311606
0.007344822085353056	-0.02514742815364423	-0.02739186418383735	-0.01462755236671376
0.006012284331970312	-0.02247322959719571	0.01101285441433569	0.002513679443741356
0.005564593037740135	0.003521101544506835	0.02558550833663465	0.00448046885963853
-0.0004968838088977396	0.0351596591467313	0.05409426953331669	-0.004595951903234182
-0.0001130261638463392	0.0945987273101251	0.04635354807513302	-0.002840908772221939
-0.004988396787267087	0.05613584684265349	0.03136675197713504	0.004815723876296635
0.0007426259749301725	-0.03740260327590827	0.02356279245403979	0.00402692360469613
0.01006375091038025	-0.03697803412986454	0.00666000405126671	-0.008431958316173296
0.01830534871801639	-0.01287941413043329	0.0004754027409261946	-0.0004321420431136463
0.01074819731909298	-0.01497310919344396	-0.001884605735953314	-0.002431651670476514
0.001976989379754468	0.001877976719483201	-0.01026651526886461	-0.002815186364234141
-0.01086347110450797	0.05392625184497682	-0.02675825662764855	-0.002122516894703202
-0.02051398194204804	0.05346126677288066	-0.01754609768264678	0.0002742677377403996
-0.02250954969457629	0.03885945926008615	0.006769293951457761	0.005993321994350815
-0.01049752008568478	0.02508654219578622	0.06178402257802675	0.01804613542899016
-0.007002871035283715	0.01299962213714517	0.05336994726258452	0.01594792331922156
-0.01079563737760563	0.009978218067763563	0.01733931712736278	0.01070071887115863
-0.00229995902789053	-0.01131927083773417	0.01307737765352175	-0.001355385900878985
0.008374259362703447	-0.03989046276790988	0.01850566129238402	-0.02936299469847667
0.02472634766653983	-0.04995758944008111	0.01056233871815396	-0.02460812661924937
0.02059954903707053	-0.03300260448634263	-0.01263987266526742	-0.01581295230999756
0.008456508792174142	-0.03971584016905474	-0.01067964496255057	-0.007774647838931421
0.01759758367254505	-0.06846062056061522	-0.0002356237275049659	0.01543959684206986
0.009440504404258442	-0.09364291451954569	-0.02466756470237283	0.01694910406501808
-0.006299789100928099	-0.07716042118399305	-0.05784545645942836	0.01725616311737831
7.159143770696228e-05	-0.02711030059304983	-0.04644769566074739	0.005218935351627158
0.01258113110392027	0.05221535364844861	-0.03563867541412744	2.092989483049612e-05
0.02049587579627744	0.06557117366684383	-0.02782552247270198	0.0158618777589137
0.01386741537649627	0.06369563772222966	0.01281876332687141	0.005189443168655829
0.01328249759774267	0.04308714501738081	0.02579809222002836	-0.01130648202075149
0.008669544458959984	-0.004475385113653719	0.01569918626784689	-0.0123867270883392
-0.005041459221928202	0.004608248045926741	-0.00115094702290764	-0.003123590495243302
-0.008808633248009162	-0.02924747664694121	-0.0169701755472764	-0.00266109517855654
-0.002508934155329871	-0.002086803712718338	-0.009004485838823434	-0.008010358126048108
-0.0008771256940210137	0.03057767275340002	-0.002357429268038383	-0.01171379073918917
0.003376409071514094	0.07370747234323911	0.00225374865648209	0.01065617998136525
0.000712547000674359	0.04711693732196817	0.01265981749205262	0.009260064329588013
-0.005681068431617283	0.01314470768472468	0.01008903431322799	-0.00241895810004877
-0.006396080553333095	-0.01511191427959653	0.00804405339113296	-0.007630195544078464
-0.007087514457556011	-0.04472566278761692	-0.009237453949994433	0.002962223939628277
0.00279195444952769	0.01131468766805232	-0.005399995280117057	0.001991042521408136
-0.02307914670635697	-0.003446822627572998	-0.01127357169152721	0.006173397483608545
-0.02379240786705972	0.003950755203468929	-0.02058291588460327	-0.01572954766938836
-0.01354354754089626	0.06289987075737019	-0.02020842016570215	-0.0138613183495279
-0.00168944561328865	0.03476232483645441	-0.01042801923445945	0.01103374697030732
-0.006522600493024367	-0.0166044550029275	-0.02880508483129257	-0.009648622396037441
-0.003895338923473379	-0.03317433371924821	-0.006561027365109729	-0.003930294138346393
-0.006631784224207022	-0.0008209380019405807	0.0200603597142554	-0.0007157006238501393
-0.01194459471221058	0.0008039738724162678	-0.01197776443086497	-0.007935104788271254
-0.00740286301233479	0.001467837742887347	-0.01821292169944699	-0.01245167077409154
0.003059869521879917	0.02627148422364085	0.01195667035253938	-0.005488781522272445
0.003021977204077486	0.0136376668010407	0.00364334082331074	-7.316064585503198e-05
0.008005956464123587	0.0286283507095073	-0.007398390050552092	-0.004898347886919914
0.0120773916334827	-0.04897835133318334	0.002531065204836766	-0.006876491926753127
0.009885320960591193	-0.1262182330482906	0.07248205386632776	-0.002325149336547195
0.0100256911813405	-0.1451398124860301	0.0596115514210908	0.00695974913129414
0.01316508843512555	-0.1092689155618364	0.0009809103302796632	0.006329490763046343
0.006961425214606091	-0.06898571893066772	0.009973334269986495	0.01482720973429071
-0.001618618146355904	-0.00134745298305612	0.02987780063361432	0.01633249301430503
0.003957610322869781	0.01899525333712779	0.02934038990644982	0.01039474232922779
0.001383766073572816	0.06654696894425251	0.02774927695897325	-0.008094761602891772
-0.001900660356030919	0.1324561642514174	0.007161733253447582	-0.007088612791733232
-0.003652471195096153	0.123938847670704	0.002240524720347911	0.0109804764502426
-0.01111906321890161	0.06644610406496033	-0.009378853641205716	0.02364383803545652
-0.0123411156324338	0.05100854417878872	-0.0173150780489051	0.0176394131340833
-0.02411431067171918	0.07830889891824647	-0.008717628636501065	0.02449711939645787
-0.01410742769218772	0.04241328742943948	-0.01764622096113256	0.01868318921392488
-0.008455377406467075	-0.0004977527471378119	-0.03138217499100531	0.003983602432778312
-0.004898022884455206	0.005936316914756723	-0.02167562198676463	0.0005153675534331904
0.01425918125067425	0.0256146056859243	-0.01909405367963484	0.01002356030432589
0.01662160737652701	0.0139423769803695	-0.005357710639253739	0.005201053274799139
0.03536559757551649	-0.04971123892310219	0.00258257924942892	0.001703813389362538
0.01663626875645047	-0.04708257089529453	-0.001843089570105926	0.00499976057498314
0.009531658100888447	-0.07004072811884307	-0.01345622605650346	-0.0003496405023151972
0.01070467530316856	-0.06347523832396162	-0.02276236400198521	-0.004045320382810684
0.01299615229848412	-0.0465642189857285	-0.02920156918058004	-4.606687064267936e-05
0.02346746146908986	-0.04863918285445127	-0.04070419844431869	0.003212127430131031
0.02060666185899179	-0.03005211471437431	-0.075088084368512	-0.01130159271752558
0.01448498749346783	0.0196720454777465	-0.03137838774123859	-0.01873953217544949
0.009777517183000054	0.01334394769401683	0.04126567901795244	-0.02982307194098609
-0.002165413894964909	-0.01057425097700215	0.07170459091548441	-0.01628137013704899
-0.001508470569080163	-0.003799660269558347	0.09223195383881509	-0.02056496925347194
-0.0218872334166918	-0.01772640445359823	0.08592600643799891	-0.003982105670950274
-0.0225379929088317	-0.02447321218956666	0.05444241944090744	0.01544625123420163
-0.01905982127548728	-0.01729519002696264	0.02579854546228913	0.00911493860328152
-0.01143511442150257	0.002646164408995489	0.009617469735725142	0.0006304418520611294
0.007538100899332502	-0.031124403782122	-0.001363147751866827	-0.0003853639965375151
0.003038848726705318	-0.05988065095882728	-0.0164762202323165	0.005244800855531411
-0.00853900417408595	-0.06793692953815672	-0.02116477725987255	-0.00930943773975958
-0.02089466642136663	-0.03512377400062296	-0.0285451689742213	-0.02457311391122425
-0.01484803900880719	0.03190876630120426	-0.02367534847751059	-0.01478494336181577
-0.01069627233285114	0.09198923663517715	-0.02016453656473701	-0.00706776116049933
-0.01297792544587897	0.06179926040001614	-0.01353290401855527	0.001999598701950919
-0.02239855146017233	-0.03478344346535278	0.0005107679317516503	-0.001736940953651594
0.01171655546992187	0.01548011166015775	0.01490082742530228	-0.01030708656401256
0.02825612930297804	0.04754843100135879	0.001096883433567917	-0.002016314000511234
0.01947182124635828	0.05481850242010709	-0.01165755967083037	0.009644894270556342
0.01564265009656998	0.01972817492170513	-0.02317274538412449	-0.003968304720119851
0.01198705940763495	-0.005729321168235591	-0.01094680945515497	0.001319264221957893
0.0007285244492035067	0.01756182728598556	-0.01208456223798903	0.01056444016244458
-0.01214637139442669	0.0181364024099487	-0.01836021783988748	-0.004043019893415695
-0.02442791601904866	0.02408682390574333	-0.02200164043755228	-0.009420455408829711
-0.02730525106986099	-0.01487293288932962	-0.02536580828816924	-0.009193720295701728
-0.01106870360550152	-0.02051351590151538	-0.02605319742324491	-0.01800781839178955
-0.004156990734600501	-0.04224048796477907	-0.0008623091142999884	0.000693732325432362
-0.005206011674773873	-0.08177955145751589	-0.00135816929236932	0.002386356005345676
-0.001631755607776934	-0.04995294337668039	0.007892051316083844	-0.0006736293494808503
0.005945828112121927	0.0009674387849906829	0.02541938678073767	0.009946159178517506
0.003688197258354257	0.05928473049190357	0.007837192245481494	0.01354076283973924
-0.0001047065881511504	0.1193037073677754	-0.02375702024489508	0.01939287713764266
-0.0002516852730063763	0.09597659205779388	-0.008843650701506139	0.02234064302258485
-0.006352963537381661	0.1015172017661934	0.001631809144668361	0.006191984612220685
-0.02126069260884617	0.06135815825841437	0.01082802470321948	0.005307433897657348
-0.01621062590678288	0.0319639244696126	0.01486105110029807	-0.00472892166780766
-0.01201552580421594	0.02863075865480986	0.01577494659224869	-0.0065374127232597
-0.001852349495172417	-0.006481231493783025	0.02240029384455363	-0.007483187936942434
-0.0002333821125646257	-0.03933659330650503	0.02832080127111947	0.004966161227950105
-0.002519862313173508	-0.05998601586203105	0.004835918702474674	-0.0007377393341552868
-0.005587506178120343	-0.02913145026100506	-0.008267229399205435	-0.01166096989739237
0.004043519535366797	-0.01392619968994027	-0.03428681367273705	-0.01148626260398507
0.01346179433474246	-0.08281440158960132	-0.02947959496643442	-0.007833644672241964
0.01422499464587291	-0.1076619117196991	-0.003147048299794816	-0.01016946946615485
0.01687917004172115	-0.09642025638362535	0.02398010211660219	-0.001851189715309636
0.00469376843651482	-0.08964489624866818	0.01463432481241027	0.004098715286660023
0.01779337556902596	-0.04195726250250156	-0.001007821896433031	0.02236933324461959
0.0199049855543627	0.03811216581611389	0.01374011331998801	0.01054213156605897
0.01851052819933856	0.02587933621690278	0.02581563786540706	-0.006539483904523603
0.01383078660188216	0.00679180898640543	0.01208254057437206	-0.001665885689899014
0.0053675557358065	0.02977527424795805	0.0008876802425500164	0.01083207203123476
-0.004047212446128614	0.02152661532927761	-0.01210114805668611	0.01324501201066256
-0.01500588323152723	0.02227674233721332	-0.01348095935431231	-0.002929331123641112
-0.004720087783627563	0.04682535535238839	-0.01505150223440696	-0.001211426147025631
-0.004593284092582265	0.04345828907892356	-0.007576151184083558	0.007178837581488412
0.003889706258840166	0.04115413299531053	-0.001289906887141864	0.007183068592890533
