0.00165555177376646	0.02539565446201584	0.01561003572320147	-0.01906102614547417
-0.007956201936855138	0.02529498438840455	0.09222894072631616	-0.01683785292444422
-0.04039018477609022	0.03291709995136796	0.03046762886055108	-0.0004128788438796695
-0.03889046126800751	-0.002729487927980456	-0.01823293479012462	0.0514060232480219
-0.03168023668941132	-0.01762908542763139	-0.02655451719711445	0.06019132012932642
0.004057046622334888	-0.000372600081887001	-0.0328952750644853	0.02900073078393586
0.01459569327780111	0.002662879030059221	-0.01017410207514477	-0.0006936422839878086
0.01805761884435958	0.01551878241629746	-0.009546086901289462	-0.01429920929966942
0.01270368845941565	0.02258832226604754	0.002020026939986597	-0.01489030738313123
-0.008340003832625635	-0.007784707688383445	-0.03569386763641033	-0.01232263487026087
-0.01351145578057683	-0.02875909848312251	-0.1049880181934481	-0.02176268472372542
-0.01329483970546666	-0.02352689393545853	-0.1138596151602927	0.01870012969604708
-0.0043890616431554	-0.004509993974800174	-0.1014601797550579	0.04677578955496722
-0.003291556103698515	0.002564739600724519	-0.03805580477209988	0.01671333106195428
-0.03886955362732575	-0.005172271805745095	-0.0168673425244062	-0.01196357714454699
-0.03188029858997388	0.002599977971466187	-0.007912193388994076	-0.002660335888992486
-0.002322314848608737	-0.002474550156057043	0.07676442110705806	0.05522229887410934
-0.0007254080313271601	-0.01820235824607538	0.1163856181908247	0.03737297989454489
0.007211779912709065	-0.02249317058552474	-0.07071513146646331	0.103584797024746
0.01055834182757573	-0.02780294015807445	-0.005146679840217758	0.07688616208852489
0.007250081052469146	-0.01570935828552488	0.03507722508315809	0.01658482153827872
0.006634676963814498	-0.01725829433300291	0.1309265071705193	-0.07350929425814912
0.02052426402254296	0.004377365744055157	0.067088876403031	-0.08992615683055281
0.02203465863540034	0.03188061364672617	0.02354009562503127	-0.05586579551401505
0.01658828924754654	0.04070611545583998	0.02040775693894368	0.007841090406671787
1.678974743223823e-05	-0.008569496095054937	-0.01081087633876397	0.007588744896203795
-0.008734587394303942	-0.05632149637467623	-0.1116850337965464	0.05491241271668884
-0.003475258228497278	-0.04362590439698307	-0.1414278444049821	0.03680519920104812
-0.003325643412004807	-0.03713519653836218	-0.1010200383337282	-0.003435486881766367
-0.02153891464530552	-0.03799072699142494	-0.06620676822858701	0.01299924503233347
0.0003459580342523669	0.01815739082185129	0.01185063709708943	0.02754685003905023
0.00687032785811443	0.04405814934065682	0.09454441644874662	-0.0003239061942490731
0.0126707682442657	0.04200858346143284	0.02390382195948759	-0.03711496152095784
0.02142881049609655	0.03881320181220028	-0.03515742421463149	-0.05513090135815835
0.03036038883631684	0.01605271905235996	0.003024615486846842	-0.04699377566615723
0.04300398574786148	0.0103253672247792	0.08758947509047393	-0.01918305317708326
0.03660055065536943	0.0008578404309476182	0.05425369034251194	-0.01947023100366239
0.02158497501800501	-0.0002319068539064884	0.08175196258918323	0.001252501808738053
0.01448248600853198	-0.003672843255636598	0.07672778360232943	0.02209394602303015
-0.02781155839899614	-0.02285576443683939	0.05275528126911973	0.04452951576672658
-0.0368007591082803	-0.0249253508566793	0.01109675897195212	0.02855351472203071
-0.0177911980141333	-0.0328696026081203	-0.04482791548995234	0.02002622863615942
-0.02051298494147239	-0.028825757642825	-0.002796904091421745	0.01664424657633881
-0.03486143438191324	-0.0262863851185698	0.0341897883557356	-0.01629543515388559
-0.04086930870285533	-0.02719896296324151	0.07002321028108903	-0.08416303236211593
-0.02125372161192669	-0.04410383274035566	0.08755363640668845	-0.06278898426842913
-0.00848543315060481	-0.02923108655368388	-0.02738505472062853	-0.06232964204659965
-0.002784117909497356	-0.0008245343967159453	-0.01908687393952515	-0.06277777342117317
-0.01040743303530171	0.01866378025348507	0.005722834974733973	-0.05617981523461536
-0.0201126045368783	-0.002655438772218024	0.03376921749104016	-0.03079193517882899
-0.02371074749701966	0.0001079904275389275	0.1266432260123538	0.001509642914331653
-0.03906009603471923	0.04331861308632889	0.01413985842654908	0.08103772488148203
-0.02555080873803236	0.04241600838019932	-0.06637488611743551	0.1603889635787326
-0.01091856591464016	0.0136096586970696	-0.1009440942017585	0.1346421316232652
0.01456071321190789	0.07464062726307089	-0.08304813738801953	0.06043555622717727
0.02441932067087973	0.0607165327752815	-0.06762349604810147	-0.02588508526817552
0.02194864451303425	0.01104756934912018	-0.01210163928784782	-0.09909151680037055
0.03490408660958431	0.007354146221375682	0.02138049587897883	-0.09496291851698152
0.02264986955268751	0.02246462923946376	0.0463221998661357	-0.09032502709852781
0.0001323066244178435	0.006921293769554784	0.05898858474575699	-0.05757718135069174
-0.001331523885515705	-0.01736075921911757	0.0354956178431514	-0.02325518166040349
0.01676280443902759	-0.005582277962949213	0.003955182901980601	0.04112472627008788
0.04836693751696212	0.02583947008643292	-0.008308318367917834	-0.01498628442678332
0.01802688279016272	0.006235061372272508	-0.05819715709493285	-0.02319833718112815
-0.005516941982938338	-0.05063840113325102	-0.06928176436957124	0.03274155762267233
0.01496409293931285	-0.03344452121525778	-0.06853702378944385	0.002382310060761417
0.01433368174558581	0.000771334174689326	0.05977909076677631	-0.02560296490990041
0.0196416916700319	0.0667510697326564	0.02157414654376159	0.04907908513148058
0.005333654745060977	0.07182728079090885	-0.07249647576086425	0.191615317471362
0.0001978689138558028	0.03623743572729199	-0.1081844804370121	0.1090689166998278
-0.03104234911432589	-0.01317041047413039	-0.09824771403731328	-0.02700327799467955
-0.03970395373856269	-0.03851622874940724	-0.001325558699438106	-0.04798656123995711
-0.03173165500041953	-0.1356185441846084	0.01777194837319782	-0.02850886243318217
-0.01489991017647708	-0.2172406635130835	-0.006624065709546558	-0.001028242405981315
0.00602051333235163	-0.1661920925136247	0.04170572691184112	0.01822832710996528
0.007690815165773448	-0.1001448248989143	0.06507186470613124	0.0182711859065556
0.005836070137596241	-0.02957515732113403	0.1006925162853168	-0.02085465906378045
0.002627650197546982	0.09299544624380675	0.1384169241748204	-0.02168246604967311
0.0114935890568719	0.2417289070099255	0.1123174766484566	-0.02606886901984189
0.01445003331625525	0.2216496946071688	0.03768346521743096	-0.05278387279017521
0.0127399723603669	0.1219600789981894	-0.009666326975557343	-0.01813711732557651
0.03351123456177336	0.01815397593067794	-0.03844439930575597	0.01489066822758461
0.03344287879732308	-0.00825230142540879	-0.05469334329378713	-0.01480363640134087
0.02926127743185003	0.00108945464407471	-0.0278379602906678	-0.01429609923252382
0.01533831404566106	0.01778649803223307	0.004730697115629956	-0.004183351201540788
0.0197250255615467	0.08468209536459773	-0.01515410612337271	-0.01030435610857738
-0.002028059069165068	0.04091382847151353	-0.05433156808545386	-0.007672106151602651
-0.03432026479437133	-0.01777365516221751	-0.06214713350199902	0.002798379546040755
-0.02537130043313199	-0.04035327269042117	-0.06262383608822089	-0.004781565107068355
0.001600947966136713	-0.09561561301831777	-0.05323995496138052	-0.003593505105247124
0.01866033046418716	-0.08045977385449551	-0.02298444037721326	0.01356447182664092
0.01209300773268601	-0.04489667341409675	-0.03579611450754782	0.02882388738241474
-0.001399996716622802	0.01836608432568487	-0.04629084389902924	0.02435649699892148
0.01862224717448801	0.008394122455199436	-0.04184739700295374	0.04165519326338663
0.007138424774808355	-0.01031758274692396	0.006233866792376711	0.03362655473602702
-0.02399942860744118	-0.02502301506757842	0.02027467507189826	0.004766197165021081
-0.0378383727668646	-0.03709907974606681	0.07460968137807851	-0.008800758634508634
-0.03785872773954121	-0.03120920132962726	0.04823057230542508	-0.006745640782839105
-0.05571054701354031	-0.01489899980283226	0.01370580616662341	0.01649476673445834
-0.04088277380956833	0.01938379071131398	0.008581421024554666	0.02341633379627271
-0.0103869348237234	0.009158987045323443	0.01038119806605941	-0.009642869492147037
0.01285303713128207	-0.01662508870972817	-0.008476449503125981	-0.08119402006945528
0.003513354047415746	-0.02660053666543711	-0.05710571726923144	-0.07393846003225861
0.01061514325923129	-0.04433535379489135	-0.1063271739237487	-0.05284324504465535
0.02465944435696684	-0.05208836424809667	0.004107847514533676	-0.01803111342288965
0.02185367542698116	-0.08396509571265127	0.1104237300413062	-0.0141938780017957
-0.006716864164416411	-0.08014630976179495	0.05711432620433075	0.0706072093413788
-0.01562976879360431	-0.06309192771142129	0.02017637102494018	0.07505942544632248
-0.01476201112821805	-0.03588354661197703	-0.009840926008619534	-0.0173657877422828
-0.01073210796905717	-0.01047559334891828	-0.02638658045611505	-0.02145966684769362
-0.01167808946487814	0.07090649983594337	-0.01821762328685817	-0.01191166031343655
-0.004892438694741905	0.1371579145153334	0.030836158702174	-0.01392658049850905
-0.01011253571750097	0.1231037845781115	0.004957701452305966	0.06517198564324253
-0.07141284755300931	0.0722173643380538	0.02734109122700833	0.1369623449964699
-0.08743538666564632	0.02602338829505034	-0.003189657126499404	0.006155741900672753
-0.01560100213087222	0.04113484544691787	-0.04296089805670279	0.03119704940637293
0.02875198622770139	0.04863908125952833	-0.01454040772687095	0.05064286332131832
0.03339735416333638	0.02272115540319833	0.005470917917640974	0.02727350510235164
0.04987315992011054	0.0420114222335664	0.04341169816624306	0.01318399257465395
0.04371524144986466	0.07035307104846236	0.04429906656375612	0.004487437462138007
0.01086074017495864	0.04160737938261789	-0.01713385374051262	-0.03302794602133312
0.0123112649369695	0.0193620286349435	0.002986316909330167	-0.0455153524189533
0.01724180338744639	0.002754114074178316	0.007737836183585207	-0.03935906772866712
0.01548623977118002	0.0035440816787363	-0.01395472421601254	-0.02318684234029728
0.009035615263288551	-0.004636343093515558	-0.01823306730512273	0.006859975229317489
-0.004974836758582173	-0.02300481957590053	-0.02130145296207634	-0.01648613516992166
-0.005504996782944466	-0.04318921957655848	-0.01405455694857066	-0.06407200408437745
0.00884890744154803	-0.02204203163710239	-0.005047194278792615	-0.05750071905149973
0.01328969543678912	-0.008345701559670717	-0.02760643757232143	-0.02907400419691045
0.01540076316797773	-0.007031162033528173	-0.01074239429911193	-0.02364782419643937
0.0083201907095019	-0.008962241929422278	0.006008650487254926	-0.01620935667693
0.007776334408554225	-0.005185886674591574	-0.08930287579438066	-0.002500678688281506
-0.01605975387635673	-0.01106582101405541	-0.112313017559136	0.009353416668552231
-0.004000949183162399	-0.02494009226082147	-0.0910244843655038	0.0251719014933877
-0.001063297448835784	-0.01381948912267177	0.01877567791609821	0.006870742535515805
0.002791874427941142	-0.04027087828797324	0.2314310636045196	-0.01426734193781121
0.001915976499694365	-0.03209629630834049	0.142038299621548	-0.03093969424800855
0.007177714184367196	-0.04770644384477777	0.1017209147309439	-0.02092878901368575
0.002193746225048436	-0.05264586828238725	0.03614994018682224	0.03243826310065352
0.01391811940899437	-0.03455926274581089	-0.05603712627281207	0.03127314006780693
0.003949979114835238	-0.00681292244181007	-0.03874445349149729	0.01842238787192418
-0.0026238691534643	0.02576567905398065	-0.02500898961790102	0.01617134529609723
0.0218095158532413	0.02365841853812062	-0.03919142124997732	0.005896961891345265
0.0267195336996914	-0.04408710808573922	-0.02735264493190709	0.006768177751568247
0.01815136393146951	-0.05457690457064136	-0.02905376365438143	-0.0123297925760516
0.01955562833289978	-0.02987075470237176	-0.03238658123929318	-0.01308724078269662
0.01651283656808514	-0.0002412325840681776	0.09176914136635718	-0.02662247018771887
0.02496042119472686	0.04882671307702327	0.1465861131616282	-0.007639614559738927
0.012772093345878	0.03716488543749401	0.03507341597757234	0.01020969152692225
0.003298150058543265	0.01650320777502856	-0.03862785961764913	0.00927881623261663
0.02291585389534286	-0.01018247626987444	-0.07797618135824746	0.01744098298007865
0.03306694085384991	-0.0245358163047958	-0.05499044484012735	0.02690101817037515
0.0261326749202739	-0.02176946401406036	-0.009389956143963945	-0.02568389340058874
0.007337685289554666	0.009037431744548699	-0.03923382141667396	-0.02525098927463507
0.006926988021876448	0.06112042299950069	-0.03155283407154619	-0.01799205149659067
-0.01551730522429268	0.02257414315113307	0.004336791629246653	-0.005139274363342375
-0.04006284276800247	0.005938615172475039	0.06086350873425012	-0.01963485989369898
-0.01104456136738047	0.009823939736189689	0.08840361680300436	0.01747800160028085
0.007328308045828886	0.00513601893286309	0.06131530270455684	0.072451798341209
-0.002822287339283501	-0.007595107587223083	0.05193899397099017	0.009421164442632284
-0.04123885798796892	-0.02112502662442684	0.005171925723635001	-0.01294554612806075
-0.03477077315273339	-0.02397242746538023	0.08304554264302325	-0.02083670859605893
-0.03114189706893792	-0.007735231790096406	0.07446212133930691	-0.02430344197747961
-0.03693252127920273	-0.008134903907180448	0.02139611509006098	-0.02343666441749616
-0.04798281504452456	0.01436767806275181	-0.01114992012853594	-0.01304300515116632
-0.08416955775856599	-0.02260882101314551	-0.04114170186644587	0.04258638429294932
-0.1165310570192602	-0.06191892784479934	-0.04742821444651758	0.06502374209465571
-0.1238043051138558	-0.06802743610422392	-0.09793906569353966	0.06426960992040293
-0.05802016109006301	-0.04074248155115297	-0.07456832089510274	0.03874738845483715
-0.01937406427598249	0.01906064472643433	-0.0746747428719616	0.01102850403000477
-0.001918014316688468	0.06888279073034423	-0.03472339467487011	-0.007819980708791372
0.01110192464780762	0.1005723563185093	0.1514990642674875	-0.04210729575103669
0.004925419609729114	0.09261131944794888	0.09393797573613411	-0.02472062231180556
0.009645500768728076	0.0548441082293768	0.04297455868797347	-0.00641400444088243
0.01974913891018662	0.007727146525404861	-0.01113063742993921	0.008623329159225375
0.04862304414381248	0.02050669939116554	-0.1188840886947631	-0.007427878564492091
0.05335757933465191	0.03254704712695854	-0.09101656492601808	-0.02266016597263059
0.06269815390092871	0.04565508146677397	-0.09362301716710678	-0.02605324351587193
0.04817672849019394	0.02521765341444253	-0.06811936664738005	-0.05413409141078264
0.01265558029554852	-0.007899890206376124	0.07758178163941856	-0.05760437070260455
0.004841262210473552	-0.03751258562467292	0.0318394161569524	-0.002032339071009724
0.02093794835169078	-0.04933759287296059	-0.0281478008486492	0.1141159773278095
0.02245080699826846	-0.06174877105291785	-0.03644402534908133	0.07650548527597716
-0.001889201101537824	-0.06045750324218403	-0.008342548516066571	0.01134676681258067
0.0006085133046682351	-0.04408060054641051	0.007983864468561187	0.02076877191892503
0.01817909715554622	-0.04422251075104374	-0.0338697765218032	0.06978206811004885
0.01721489728400963	0.006754622225929199	-0.07075318304482438	0.06119147027375197
0.01402057186003115	0.04970112694960775	-0.1138798162857551	0.003789255654173902
0.008456702561326931	-0.01265805476858921	-0.08421597539961642	-0.05073052648145557
0.01713661411925308	-0.04282917115536907	-0.1138976577205022	-0.06498936200637062
0.01884835182106294	-0.01105779498706825	0.009893036730428181	-0.09250291075915923
0.007976074594590071	0.00464660962959984	0.05185505860149417	-0.09636572456041605
0.009745187172804174	-0.02797130285102279	0.05506013169131663	-0.01423361403293161
0.006787282846692514	-0.04944014201294632	0.006448702434412886	-0.01562196423434764
0.01213557652724682	0.01900673114808552	0.06889652640027299	4.716716575566042e-05
0.0156477921543503	0.036825697487154	0.05680532733466447	0.03773343270606355
0.003284979393399363	0.01977757754589066	0.04024794117579338	0.02434881864092145
-0.002874265551111215	0.01221061308763756	0.01013380281979043	-0.00673733361504271
-0.0006459115429359683	0.02144888328314019	0.01785497360994397	-0.03027780286180321
0.008378159528872936	0.02411898403972326	0.01120591815103623	-0.04135539954491574
0.02024135068991903	0.1064360011504784	0.04931372699475209	-0.03632558056513203
0.02630693173450686	0.1428395796897533	0.04367228144344141	-0.01059384818760074
0.03084671883163788	0.1195537896590199	0.08102253171300959	-0.01585001814449468
0.01152400727490022	0.06577922449716711	0.0896089572482742	-0.009825894035669322
-0.01163734900072074	-0.03630283077891367	0.05634108262478529	0.005685370587766753
-0.00764034020601654	-0.08271098315602556	0.03814960906699275	0.01409017490922614
-0.000953283712038706	-0.08140256368547601	-0.04519785620596838	0.02603989084671781
-0.01309674199528462	-0.07007718871434387	-0.007286232911050083	0.03286996573093593
-0.01827959725941479	-0.06810923356405252	-0.01906138254329445	0.05042254091554427
-0.01478973041222307	-0.05387454110381087	-0.03315996932987538	0.04156228568643627
-0.01045971001176042	-0.04190538826798276	0.003195215519505726	0.005067824681764433
-0.009309759620041652	0.01101631758070792	0.0002201302858465862	0.01062767630363507
-0.004623226565123504	0.001646058930043608	-0.002810137754231843	0.004307645862908359
0.0002844335859205986	-0.009595912133549154	-0.01078456191498949	-0.02725826639162931
0.005034738143297076	0.03433403056786189	0.02550636913985111	-0.05071192649994719
0.007280715074963338	0.0606567760971048	-0.0623976970021532	-0.03126714463130922
0.006324724135639421	0.04431156635465641	-0.07174520251119283	0.0567229927989529
-0.004582334482669567	0.009219395120246169	-0.06629542014290009	0.1260664802746282
-0.01894624378332531	-0.001284051046184381	0.05283007187914477	0.05853406148665704
-0.02365264060917287	-0.07245063845390014	0.05304525632055226	-0.01682536212041981
-0.0301829862807323	-0.05780474877982093	-1.968911610694766e-05	0.01100464004714276
-0.02499267480212758	0.003600874016195206	-0.01023360570821676	-0.01315150020074121
-0.02290119476952072	0.05982791324909338	0.02178813267380356	-0.02162313477170716
0.003404810405937082	0.07825356334059203	0.01456398161285917	-0.01583592862023434
0.02360686855671198	0.06445141583712058	0.002663487291552584	-0.03550496775059676
0.0221071104124168	0.02314492862983546	0.000176253406960524	-0.04273199623249866
0.01689635520977154	-0.009229891009795561	-0.008476826314788027	-0.03958979798467828
0.02545564188708426	-0.0164326680962471	-0.04594905219461455	-0.01910768850483542
0.006278729786009855	-0.04856373054259321	-0.006620774797729857	0.006802003662326902
-0.0268736361998895	-0.03063415272076239	-0.0356500557618262	0.02067924848754191
-0.02414296679324355	-0.01493900843816845	-0.07057191774344751	0.01488197422537305
-0.04774318612374901	-0.02159910048042684	0.1088251922746807	0.03322335539426028
-0.06875816079119057	-0.04888239505297859	0.1056816510126212	0.04819031636397048
-0.03854674601537527	-0.04220425451871584	0.02623626494408325	0.03577632684975262
-0.006849246077633716	-0.04296531827831092	0.01447552189687324	0.03341185962995262
-0.01406613331643946	-0.04031178030285524	-0.001647349392846104	-0.01058560798008016
-0.02748948997199856	-0.04525992425947562	0.02114014397941347	-0.0193512249842807
-0.00425179809553954	-0.01803670160125147	0.004194695983025982	-0.01762628343160624
0.008359096540065801	-0.03050788244505045	-0.01763604988979125	-0.02491251425468073
-0.0006658157240032178	-0.04366137618273695	-0.04796983661511916	-0.03486001209706158
0.009599085019511251	-0.06569629069321395	-0.03024262253254528	-0.01507772543713283
0.01542909520854172	-0.06870262448016512	0.03269870781359295	-0.03685971369590561
0.0231787249131089	-0.06336088899979955	0.01514059157770624	-0.02050578157771391
0.01333941216268136	-0.03196061758325525	-0.03244284046019372	-0.02821172235387606
0.007712433957838691	-0.01214789995567452	-0.04705284857264423	-0.03848771423829755
0.01311804064080664	0.1937636679482185	-0.05155537278758603	-0.02788911624879061
0.007772991904577847	0.146040078682286	-0.06438549939366596	-0.01158928046517687
-6.796451851954122e-05	0.06292728514844249	-0.09526795305553459	0.02508108546316398
0.005326730505421717	0.04653702609667577	-0.1291077207983298	0.01501246922918393
0.01793889639545601	0.0127530407754908	-0.08965927673939239	-0.02052035559264405
0.008439567125747014	-0.01335277276321833	-0.06040455085123369	-0.01939244452431736
0.01779350847568794	0.005728257999527579	0.06193332572292527	-0.02989028475375346
0.01781734553908279	0.02065474971258845	0.1051366196113456	-0.02949001474532668
0.02324656029337896	0.02988608277524907	0.0645004621345355	-0.02275044097853849
0.02801745167191433	0.05964998568473915	-0.01428945214731541	-0.01606766414598527
0.02901156708944612	0.05650360977146369	-0.05427101759153976	-0.009918863828544049
0.02407121058460752	0.02028721147733	-0.031244041344942	0.07074162184867952
0.02970070148807969	-0.001620360207113056	-0.0179068255684541	0.0817592841260197
0.02249395126229128	-0.0002444106707619747	-0.1164787721507572	0.01253658403161676
0.02716931681105182	0.01523521851588611	-0.05199826092766935	0.01454329064719106
0.01407545284941092	0.02623143550708982	0.06390096770872249	0.05035566312249264
0.008445467964535169	0.02532163509743959	0.1603715510971897	0.05073894671817918
0.001073888267375927	-0.004867199329423423	0.1577542582243281	0.03415529151288155
-0.01191181232247889	-0.03431478798382093	0.08857337519093073	0.0220453069488247
-0.0172866847710919	-0.07364331157170344	0.04323634588509363	0.02972855449441425
-0.02589671140010081	-0.06767029820007864	0.04334802494079315	-0.0230221134824209
-0.05187150566881781	-0.0707495256161855	0.06658877666186537	-0.02419651423053929
-0.06691566265642988	-0.03426547472147248	0.04204935636086379	-0.005924480107353902
-0.03943845028286387	0.04750069055248881	-0.01731325146540202	-0.02310332419971277
-0.04762239958130422	0.05252926728024893	0.01713886127767889	-0.02434816462269601
-0.04054022831689542	0.04264990188195268	0.08043897699919411	-0.01653623639997081
-0.01180099211394176	0.05572024583253225	0.03528089180270454	0.05337527701446444
0.003881895235107671	0.03180831322395105	0.008994102194850846	0.01930533166273343
0.01982365581339361	-0.009238918586552926	-0.004766181736185528	-0.01309787716628151
0.01948237328913709	-0.01667031166306289	-0.007342435218536224	0.04240935177438047
0.02119917294069979	-0.02199323490525603	0.002980883254007655	0.1147432029100099
0.02092430969066376	-0.02945863939373148	0.03267399288427027	0.06620623635300849
0.03111163714444013	-0.03050116689311401	0.07144386666222097	0.03208400897735032
0.0327956165698788	-0.0306112444871368	0.03003465887029	-0.0001456516661965017
0.01265218594477533	-0.03792152480521344	0.001322651187894911	-0.06744826672079451
-0.008677461910351215	-0.03673612011488733	0.01527024013650329	-0.09033554685104089
-0.009869603679565605	-0.02467842001670773	-0.001518879876456716	-0.01669807684923018
-0.0006288952846096978	0.02210797493686241	-0.07470254915602917	-0.002795603978054656
0.02125031413441628	0.0330228620173801	-0.1031914692049854	-0.02510753628081782
-0.01567532141238715	0.05282737405861557	-0.01758069064815362	-0.01904478132440084
-0.05123307002424305	0.0660183126666975	-0.007843792774175677	0.001110426888921497
-0.02951627242654777	0.02118945267333046	-0.04989908030398253	-0.002113088456787625
0.0004647166178852161	-0.02601967235118093	-0.06217812295197762	-0.003104779909679631
0.01668988752846287	-0.03414472195711953	-0.0971653983664395	0.007470735691723037
-0.001418240564611932	-0.03272809908219121	-0.0717790947210091	0.01706427122995179
0.009266795746833548	-0.04135289852333788	-0.01337372909898452	0.02496814802129253
0.005003812784341794	0.007549648195783716	0.02737555366192816	-0.01251159056019555
-0.006900819281404049	0.07980862254376422	0.09844158795453412	-0.0531502167219955
0.0008194808713898721	0.02602140406275587	0.0628003983741932	-0.03158301536205889
0.01128746676387226	0.009150830392346007	0.02226421250883504	-0.004189092276082572
0.02013236871939108	-0.00162868014344116	-0.09646025321333991	-0.1009645541863744
0.0153349381239472	-0.02416347608692597	-0.03650343111827721	-0.009904704724780165
0.0117000345345751	-0.03700544322744296	-0.01523626143919565	0.01727252315900376
0.007651188262375798	-0.02655847345672254	-0.002739172966687333	-0.02436218544354641
0.007254302278473714	-0.02328382898091115	-0.02870293006016751	-0.03017299236805792
0.003603677943895554	-0.02566994341095645	-0.07541312744816783	-0.03064476708471222
0.002639741383016056	-0.02822219937455495	-0.005959554271599049	-0.05180827114377435
-0.009420482933210747	-0.04799053528555017	-0.04030526595143114	-0.03520056843695774
0.007295871881387692	-0.01982555704583065	-0.03307307877004235	0.009437788288646276
0.004167017916313634	0.002080966049693307	-0.01982694500179327	0.02741662453506569
0.001133642684854675	0.02014920638999579	-0.03254474134265288	0.0034076339266916
4.857137233871782e-05	0.01676355732181858	-0.02009380595827041	0.00372245545663256
0.02039047659319454	0.03616458257179901	-0.003551947979987915	0.009689561615490066
-0.002175626547013741	0.01959487456250891	-0.004437782036884124	0.004109841635035693
-0.03558559367213721	0.02728769865851098	0.0004513165519979593	0.01083835678311712
-0.02163511452254214	0.0203650302050961	-0.003932891599847905	-0.0138704736714392
-0.02733129632785943	-0.002417171228902355	0.05427086866050868	-0.02513551412829023
-0.03405576256183646	-0.009866409283808988	0.0625877274688055	-0.007396094903159764
-0.0383242351317704	-0.04146686032721545	0.01544019488557424	0.005506268123892412
-0.02638963733377114	-0.03403935706299607	-0.01505631971250391	0.02955171387651027
-0.0108210644732389	-0.03743300468651001	-0.02470025121887112	0.1344320507276635
2.975134752989284e-05	-0.03327945523578119	-0.009870043472080401	0.06747580102431533
0.01943144741256397	-0.01723131469150323	-0.003378089282325945	-0.007265526108619027
0.02332708649899706	0.005906331226452123	0.1339550684858983	-0.004636519558439401
0.03245944681389743	-0.001826825290924271	0.1209729696261818	0.01076532592385337
0.05192036394696751	-0.006030684612753269	0.02979830162831432	0.0816236245542275
0.04386098239292559	0.01229337606881661	0.0789087925474118	0.0325655439926693
0.04500565985702645	0.02243485626595428	0.05654207059440219	-0.002340914340330709
0.02694588101562279	0.0001665115715039341	0.00268507653115961	-0.02245919846035983
0.0238812052109153	-0.009263938240464318	-0.03793165171886027	-0.0553793670010322
0.001626162968346088	-0.006668289792867706	-0.01741647531628068	-0.05234625273150959
-0.01837791647705959	0.0238130810788094	-0.01357439455718093	-0.03503525153318597
-0.02962483136857434	0.04605250506492332	-0.04689808530487992	-0.01452049258626421
-0.05695723492096948	0.04390652872429535	-0.05648056036000674	0.0092463667545404
-0.06003164075660805	0.06834073781070583	-0.04395560292094219	-0.0007895580139401
-0.04048737168616489	0.02612807329466237	-0.03951014949941194	-0.02385817545754902
-0.002078374366704527	0.05364129872493457	-0.01170535617547687	-0.03308053033032137
-0.001852299176477769	0.0398613587275378	-0.02135653991112467	0.01717013290848709
-0.0005739301814908179	0.001341326754363404	-0.04267434503887613	0.03691012946170142
-0.0007745816841962168	-0.01131387717637703	-0.07200356513866341	0.04115293376836757
0.01241696848626297	0.02228938374966929	0.009750398617508491	0.04006442970416387
0.008827600973828995	0.012288898690136	0.04927595200845934	0.02420756521719901
-0.002687622860616178	-0.03517784220835898	-0.05834509887425507	-0.004670896503651447
0.01760604690787281	-0.02433573300376115	-0.01790855979774456	-0.005661131329316262
-0.0373149125163157	-0.006246293709302358	0.04734583268734897	-7.786275380833232e-05
-0.03794497590257843	0.03251630817667574	-0.008437672014557328	-0.002905396683044789
0.001654814955930839	0.05561876305837544	-0.01094610766436893	-0.008401762969638696
0.01215155811557701	0.02161142231885615	-0.01591679886714348	0.0005151497901007957
0.0275534514730908	-0.04976323879527605	-0.010687350486824	0.00628197224312432
0.02563396450842416	-0.02838152855918699	-0.04188085535934746	-0.02216733444064708
0.01831731129580217	-0.01809640788841272	-0.02959808782908432	-0.04567035436356991
0.02083918292502512	-0.04389723435263888	0.004663363504832319	-0.05023608701587429
0.0303056925945775	-0.01950801248748081	-0.05032129016056204	-0.03767949530935426
0.02480302816791839	0.01224268177756788	-0.003961756377419673	-0.006464883731078203
0.01732358584897	-0.005633467699566493	0.08260358511689053	0.01172680047479753
0.01441422112472043	-0.02265205517278675	0.1150336464653789	0.018542141816386
0.002397204600808791	-0.02060437836221951	0.1100342162091114	0.02291912122847475
-0.0102450306940533	-0.01260833690152477	0.00913855409073173	0.006251657541001217
0.004100060338985896	-0.01560364545434331	-0.02839702290585841	-0.00939396865336066
-0.008400809113274789	-0.07047276288675686	-0.03443435061154806	-0.01127207740018558
-0.003422176248523634	-0.07875881224288368	-0.08186397475449102	-0.0278871709438035
-0.009767365159885811	-0.09264920516658173	-0.09327017388493594	-0.06046525654142441
-0.0033335975851568	-0.0743900955209401	-0.01219676389169385	-0.05278691683432502
0.001077506030968712	-0.01659781074960054	-0.001016557103615535	-0.01398524022286254
0.01862467898689047	0.1022801602305824	0.109181622544993	0.02370991845899767
0.01503844046174216	0.05611809035582122	0.2268819607170083	0.06357421766867578
0.007997616848544145	0.02657805049155902	0.1638417809308179	0.1300910162880588
0.009190255704317503	0.01343049850827733	0.07482366313169916	0.04762867781309772
0.02121301921182286	0.02232371365038058	0.02908192498666574	0.02984782125516786
0.03045897142932932	0.05209790990734025	-0.01764959975636764	0.04989729195798369
0.0219564895000999	0.0545356343022757	-0.03737529652895765	0.04121564116552096
0.0003256378559486717	0.07423529795967956	-0.02996522814336429	-0.001095124875772556
-0.02755393044908048	0.06513158356046198	-0.05127853197480722	-0.07329232915831813
-0.0338437946347661	0.02866097111614791	-0.04479515184124283	-0.09037271534567404
-0.04092064362284355	0.01155726634393284	-0.006844011451404588	-0.04024272897820379
-0.03786191995970269	0.006953818168654805	-0.01330724574719904	-0.02397509405150364
-0.03594632472330007	0.004263479188441438	-0.05167255479914106	0.07528981954145574
-0.03699973570372833	-0.02948668070087127	-0.05853809869847103	0.04833596462878152
-0.04580677036995461	-0.05900739025445974	-0.04424976511282422	-0.02884008427547471
-0.02881181850840881	-0.07081868491251544	-0.05943445112112834	-0.02455089906138329
-0.01242943700040438	-0.06051395643655932	0.02625076991384477	0.01185450874817962
-0.002899759760708793	-0.02763777210174774	0.1898810131407678	0.09492592080190826
0.002643254306574736	0.02525146938249371	0.1619128209905657	0.06098855881168534
0.01718493655903014	0.1030947758761014	0.1095649944878177	0.0487440402121816
0.006372485150169334	0.03723567235426477	0.1078342485868377	0.04994975755517272
0.01398262002035208	-0.03700748549473445	0.05035087624725009	-0.007034418679865474
-0.01275000183049423	-0.02208989331381998	0.009056371820355779	-0.06454994820983184
-0.00502674738677639	0.03783913886777386	-0.02569186851297422	-0.05285718260135797
0.01553206910949698	0.04682676539437945	-0.05372709036184253	-0.03494203434238722
0.008673611434157059	-0.0001582413356626799	-0.07820538846004393	-0.008045551380185133
-0.006237306001498106	-0.02243162766262793	-0.09594136169434564	0.01531059625841008
0.001366265954436561	-0.07962099230441368	-0.04539217131872292	0.008732753356098773
0.005425315610263448	-0.07219230412690415	-0.04267113948156417	-0.01412287641370556
-0.01245867252738346	-0.03002617846904646	-0.07786864377899433	-0.02960067205277547
-0.02085189729895946	-0.02009149298944458	-0.04106469031381855	-0.04614513688040141
-0.0005757708315959125	-0.006456313965467884	-0.02862352241215628	-0.03607454007311574
0.005431105246426177	-0.0001412922199136214	-0.03548485135403735	-0.009880064640652367
0.009191730086813132	0.01373790987277078	-0.01756414978386002	0.005412496252810004
0.02531749055550006	0.02724631862944999	0.0130347492080278	0.04239027512280355
-0.0132117597651446	0.01438689485932785	-0.03839196447781294	0.006824363577129212
-0.008935443995528525	-0.01720081688790522	-0.02576143354087131	-0.001973336500134245
0.01973038834898702	-0.04227980130799768	-0.02718454567177814	0.003043978182358167
0.0357225464895749	-0.05833753364667462	-0.01556950802930602	0.009673907801799596
0.02898911765771182	-0.05201301792501925	-0.01229124149316836	0.0166488218922826
0.01937810492762357	-0.08241141493199305	-0.04781446521949556	0.0001848527576200153
0.00412738206036016	-0.07887159604278814	-0.06644493258802232	-0.02105938343392725
0.01689287327511274	0.01345219042002568	-0.05610848677008391	-0.08465672834333983
0.02016447781323443	0.07238079475508163	-0.08940248308659812	-0.052546569889648
0.03439622328092472	0.06456821543804458	-0.008754769073270307	0.005215786005753497
0.0315140588490969	0.07730055346587521	-0.01735377737183443	0.0109008586758171
-0.001354417365327685	0.1573843910967209	-0.05816329915210251	0.006701009609717902
-0.01801627372442274	0.1876438975158048	-0.05405704331485142	0.009369692635549303
-0.006693186268552741	0.1050930405349933	0.06256452582627883	0.005037388834750884
0.003244702940386292	0.02617873044710489	0.09018465886846339	-0.01639413751692475
-0.002390362068495568	-0.0009948748913142288	0.09655369873382136	-0.02877100555050074
0.001863540086348741	0.007114897654891999	0.06511585374155834	-0.02726350167479782
-0.001121153234883716	-0.002234913043807859	0.02965352283411819	-0.02087752307991373
-0.02926794390524342	-0.02033397074927132	-0.06267396668369687	-0.04529713498415889
-0.02902108523295201	-0.02202989282387759	-0.04168289778261909	-0.05431199652432935
-0.04290804685062575	-0.0449604639471308	-0.006688706995764481	0.07281140668744759
-0.02321538352840071	-0.04441508879145779	0.003574783614747172	0.09543770871893277
0.003017624445161549	-0.0399279026297747	0.06919200933314497	0.02277388035073364
0.01130165983510056	-0.05241798901522057	0.09638483702811042	0.01752606935458209
0.004539707678426149	-0.05853101348891192	0.03271259270001635	0.005489855217637926
0.007198136551906142	-0.05567895487688152	-0.02983273785672428	-0.04543053334408321
-0.01567822750990295	-0.05145859060209604	-0.0504696903576566	-0.02464173843970146
-0.01754156821762621	-0.05375082222045467	-0.03881120541674039	-0.02111044749268901
-0.005785403748140248	-0.05496188015284528	0.02290913234379608	-0.02942411946252809
0.007567337181448377	-0.03445789232327786	0.06122815809757803	-0.03288230682473062
0.00430448800024871	0.02039508367334933	0.02768473026944272	-0.01133803825426614
0.005797559298100519	0.02931408254676232	0.006201504185454192	0.0005829287730499203
0.01304581601237502	0.02278676870428637	0.04914266670298388	0.05555842797620525
0.01119938556106166	0.00195864143614702	0.05403910452731633	0.07765049491860575
-0.005997038231389356	-0.003560265980553411	-0.01316821284400417	0.01901101863557799
-0.002797401060035392	0.04200011000408289	-0.02167749725496384	-0.002510769490151014
0.008805189742356613	0.05612361506582398	-0.03625568815114515	-0.04358711364955239
0.01496622429282751	0.06037710666904909	-0.05805932254577074	-0.04692722638912802
0.01072653879967074	0.04441649461610852	-0.04991082129316018	0.01484723821581502
-0.008526953371713504	0.00582981333743295	-0.08952937571110532	0.0186734981216169
0.0007853589320842777	0.01128163846182555	-0.1165472093088582	0.0212049352519727
-0.004774664830083371	0.01021890467460224	-0.09345501713920351	0.1250791065296322
-0.0009526659133386287	0.009614909885773307	-0.08440203444566315	0.1549997305470564
-0.01419762489605372	-0.01951203414276741	-0.0166149605448688	0.05118487566812014
-0.02414607283751766	-0.0400319001658249	0.08648782841518762	-0.04268864339001159
-0.03136053681371971	-0.04429229133964599	0.05710838693566239	-0.03206878705172549
-0.02713256795061549	-0.04288297402582428	0.1476415921446798	-0.01628654426148395
-0.003533436481085816	-0.008828010520529174	0.1213684846220553	-0.01150922773992604
-0.02100013200093017	-0.007918518680391706	0.02109003181932606	-0.02790152758843244
-0.009346613520856778	-0.02695477196940224	0.02115538001628007	-0.04846319624133071
0.003685288210216834	0.008348701265233629	0.05064318012020933	-0.05224988640261914
0.006920553628031564	0.02331896594248425	0.07048971876899966	-0.02474096139859336
0.01154688127152298	0.006184096705964528	0.1089807890031213	-0.01223092593353321
0.02344191027182683	0.001777484476192718	0.1526113298639694	-0.04945166866683949
0.02670063052727928	0.001825629079420553	0.08206275880255469	-0.03862604832778493
0.02360319451979871	-0.0003766167349263921	-0.004043672226051328	-0.00687286866015216
0.02197945203532141	-0.02521684717841086	-0.05828160174003336	0.000283084134514535
0.0194841007783855	-0.02205916523290225	-0.03532702010809523	0.03185740648311875
0.009036854675620112	-0.05502782068890214	-0.01681042097800549	0.04185775840999977
0.001444500441737366	-0.05229053210735997	0.008265930596789851	0.007035445316441284
-0.01845185195856886	-0.01851589872695892	0.00318239573089878	0.001755522263575402
-0.02186153612170012	0.03285635661911829	-0.01761248422050839	-0.006988902681812885
0.003914669300479686	0.09003933083516701	-0.008942653467410215	-0.002363200379696095
0.01865108460413867	0.1075772125653339	-0.004820530791398108	-0.002410375678363822
0.004827549920349404	0.04237419861170929	-0.0208717517773609	3.951494107296846e-05
0.009452460670391356	0.02457307604593179	-0.03450783806666415	0.04220699619334924
0.01283185654054422	0.01078323956547767	-0.0134862273990356	0.01103696467266316
0.006074129271680014	-0.05428148453538714	-0.05524658141170053	-0.01941183258809259
0.004449900888608585	-0.04890959242268515	-0.09144443623507559	-0.01803902892474023
0.01460098768384869	-0.01175209350221697	-0.1019899597077367	-0.01687095149892313
0.006471750964138376	-0.0171263691226654	-0.06841561916030657	-0.01845522397064646
0.01122351289524913	0.003329554939455338	-0.05138933202313347	-0.05218293717571663
0.01878803743470299	0.06912945144413446	-0.06485917898011613	-0.04034917532058344
0.001601262349625445	0.0408347383845267	-0.05626010448595645	-0.02660727879429296
0.004263790389608332	-0.0007363676229573191	-0.04067852020446435	0.05056446677774396
0.01051448416493902	0.01630310621808311	-0.03583309146411151	0.1289739858185491
0.005989027461199377	0.01806255736779985	-0.02149829217293299	0.04780807441178166
0.01426209144386227	0.03071407703445697	0.0160548699894887	0.02900479417717359
0.02160738970397795	0.001159763480954589	0.06859790817317507	0.04480672074342768
0.01758723548573552	-0.02162310960546823	0.2486859688468139	0.07036452144515927
0.005634492705970258	-0.04728174298356978	0.1597136738350633	0.06990986118148496
-0.008036752081176268	-0.05420179635638859	0.08158912708659882	0.05608347671290179
2.400022576435777e-05	-0.04043158471188103	0.04462332312998001	-0.0196334136598307
0.004368472631692547	-0.007022960593204067	0.005884796313981471	-0.03533222445290565
-0.03619042397445196	0.005627528237654346	-0.0147191709559516	-0.02398795152558311
-0.05227738845568003	0.07021364821527559	-0.02301384225570031	-0.02061928353110011
-0.0225712528589904	0.04416375598824057	-0.006120021625486792	0.01737377677237627
-0.01031478096107847	0.01313360107614043	-0.02464830203202461	0.0336450974317948
0.004002916913399769	0.04569769727872771	-0.06180867199646497	-0.0182030717099301
0.02120163557223895	0.003010013925532887	-0.03569750457800323	-0.06228177072992715
0.0137749173264506	-0.0158635462653045	-0.01398074070667924	-0.0461896041012166
-0.02974728006549774	-0.004243204783269587	-0.01856036262178832	-0.08858559600235223
-0.02464264477862483	0.00035238334553543	-0.0221221828753027	-0.05293487832308633
-0.0151390329461038	-0.008760428232585913	-0.03553492822571017	-0.03088122706864022
-0.02943143564765442	-0.01579566866158373	-0.07772148724397843	-0.01828582064802119
-0.02765505657971797	-0.01769508921473139	-0.07498626624777924	-0.01448363093034983
-0.02623858979944767	-0.018709816385874	-0.08277249510068423	-0.006192367247335137
-0.03245206962675381	-0.02733367861702505	-0.03618893775101711	-0.009490885952337096
-0.0321005811479647	-0.03579572379298513	0.05186049222699013	0.003493703268153445
-0.01799486482461677	-0.01222526877309395	0.09237080477789163	-0.03112080275322406
-0.01836189231983007	0.03415554265035676	0.09735669705322444	-0.05153104354921389
-0.02799068388725395	0.00160256616021377	0.06701456747814179	-0.04736584618633741
-0.02402810575738112	-0.02246027149367654	0.05501387261750264	-0.03368224990184952
-0.02470032669041148	-0.02284338841862859	-0.0009334290009869395	-0.04882628194460013
-0.04351943343800895	-0.01532158474552881	-0.03364022288696624	-0.04482194648187819
0.03904955474798805	-0.01386175138210056	-0.05269677713301586	0.01449020812674012
0.02929570967068808	-0.006454854653576525	-0.0005780455073983537	0.1644271000808912
0.01630661832189212	0.01896750295225738	0.05970101985082596	0.1122930490154644
0.01447348718946685	0.0159642114614271	0.01740744782445003	-0.008123059962944474
-0.007806167953598813	0.05302365989342075	-0.02191149639623015	-0.02222545510504994
-0.03181625025456583	0.03854840802991758	-0.004052467390066411	-0.007412587160202697
-0.03267330141482145	-0.02498594414156247	-0.03549929559137271	-0.01224025962236368
0.009370065092603375	-0.03352241968806718	-0.01253628792908465	-0.01028741944821156
0.02379354667024691	-0.0273351091300828	-0.006722452705463797	-0.009051713939864701
0.03255309206257982	-0.00497244959435879	-0.02492646421785648	-0.002392015365806303
0.03226342593291083	0.002213485822146776	-0.0120978273998314	0.0002826088358464162
0.01826025610982674	0.01521073697301396	-0.0009893290316953069	0.01058139408487045
0.01991414133649718	-0.01742066426852687	0.009037448564155301	0.0212071746473348
0.01548824266417525	-0.03843007586445721	-0.006887138494168164	0.02333477729645154
-0.006882958900803202	-0.03643922566268658	-0.05957454331738781	0.02273783107630715
-0.00278155339327755	-0.02088003218521744	-0.08540027888627275	0.006244667595445327
0.01030972263324086	-0.02945308865699528	0.05204683437271682	-0.08299255612367307
0.01352153552021436	-0.0259373913580343	-0.0158502027203156	-0.08067931965987396
0.01200854011484719	-0.01074635062566462	-0.04739011526653221	0.03899291665678083
0.01993394304708334	0.02785723084747625	-0.01358760733465685	0.1398177961100434
0.03194194376566498	0.04081736889763199	0.01513154519255508	0.02735062168127816
0.04174875904593909	0.03159727441358622	0.06194130956810886	-0.006723272867159912
0.02957302321912484	-0.01291700306629999	0.08433021432221846	0.01854596332548268
0.01346917127396466	-0.01702237639465723	0.07937356741050677	0.01347611450107842
0.01096924242744822	-0.007427098650343972	0.01182868289579794	0.01254156194860338
0.01549720978096529	-0.01773774876771171	0.01518455315408285	0.02180251758508271
0.01027207340118305	-0.03841147657609713	0.03220235423661211	0.02167296420402854
0.02607785081165887	-0.004734566202362713	0.02424845447790714	0.00795100448195459
0.02286216062887319	-0.02769701083390352	0.04070942237536883	-0.006007071934143424
0.0237959911551403	-0.04628506064370855	0.02788030303009974	-0.02728556025109601
0.01448000457657687	-0.04221413260866923	0.002693154003535802	-0.02583576555227868
0.01015920971933961	-0.04070382596494278	0.0006521129638552051	-0.02029652677972296
0.00481054113404392	-0.007076271006844592	-0.007123492846843891	-0.009763378948456856
0.009169593973183893	0.05613261204706973	-0.01322857690121253	0.01105822919025391
-0.01161423591994115	0.0911084835251099	-0.003808121841839522	0.02624296203112955
0.01650760072722533	0.1232746647531547	-0.02834472067107295	0.03645297580636807
0.01856566307932066	0.06017774045912716	-0.09100426292708046	0.06223732411767851
0.01475420584231931	0.03345900573436891	-0.127443645101404	0.05124291234425583
0.00446806461547721	0.02398514267970354	-0.1479556790941857	-0.001934431511593717
0.003965086925983281	0.02871725442300608	-0.05665177001838593	0.02471607428588346
-0.003010776722505919	0.02813467584072289	0.02864849434332297	0.04000725034893218
-0.01651691629441068	0.02299658749063156	0.02238980771558007	-0.03465908038535673
-0.01869345549521006	0.03784207057675981	0.06484181654962078	-0.08568997000806058
-0.01384620533892207	0.04069980724311451	0.1172913601220039	-0.1302978737723706
-0.03002045478202505	0.008031015109559156	0.05657032986477471	-0.1459914458552586
-0.0571202594242264	-0.03487984076629112	-0.0135789701581337	-0.093848438988831
-0.03533955745463949	-0.01046081780006829	-0.01696359195614803	-0.0503913500756699
-0.01661227286970779	0.006220433967563737	0.001983223511775372	0.02350828327703114
-0.02057874181657596	-0.01703493445456728	0.02565473958603122	0.03119096874348046
-0.03798380019738647	-0.006818815916622375	0.05433411574673881	0.006786423030532078
-0.04412676745239968	0.05966931396899486	0.05822217359764482	0.0178962743503092
-0.02030548540995732	0.02170917934738817	-0.005103333920464425	0.00320481578136653
0.001427135679944735	-0.01570811577887011	-0.01821087178759315	0.0102691846925907
0.01080543304367111	0.006576127311638359	-0.003848601328067382	0.02478400431297759
-0.003361339314219107	0.02988828608757492	-0.07046566397548201	0.0161847035136314
-0.005768916109296432	-0.01002381047059019	-0.09759650306555173	0.02091464499831424
-0.001946054525266901	-0.02211788638184312	-0.04781373638795911	0.03174985092789964
0.0142848245041072	-0.02283341095888563	0.03040907707561204	0.02569839384691916
0.01295491526194808	-0.03456425931320483	0.04171327389568714	0.0237474303950201
0.01845652700466098	-0.04454959593477185	-0.03629829362149802	0.01200098858086621
-0.004579758483945199	-0.05088038363658304	-0.06457587819530372	0.00369330684957248
0.04119023306103774	-0.01795410670626248	-0.02207296523312556	0.005977978893686359
0.04279467231027397	-0.009835316749476835	0.01012214286145833	0.01341381426903191
0.0259455219671688	-0.009961998247122196	0.07026411130384948	0.006648676901141843
-0.005925765956153828	-0.0009606261314678943	0.06493385502605142	0.01410332142956454
-0.01255244926754542	-0.004511238629890221	0.08458266250941084	0.03056732570901047
-0.007009492988704309	-0.02487137316266431	0.0326931888132091	0.0323699116965699
-0.005117975725981833	0.0109329282960615	-0.02511000004738723	0.008673266315603013
-0.02496316375726285	0.04178015613656257	-0.09829540343241724	-0.003561304229195166
-0.0385362976991464	0.007276767373986139	-0.06812013188584003	0.00350972072958329
-0.06524657292940114	-0.04003049067819731	-0.1042053519254112	0.01732357757118909
-0.08941615232022955	-0.05552929777981687	-0.01640579398427127	-0.04524407267556849
-0.0620428471915186	-0.06933701099790746	0.1096026053588127	-0.05651494032567893
-0.04503833811625135	-0.06467679780765623	0.09556886590602109	-0.05055842089818626
-0.04185816429129252	-0.01341573618026714	0.06225549185790522	-0.01731875749523688
-0.03575827274017102	0.004835116706072392	0.05733037742988237	-0.02972291609507913
-0.03020643733144667	0.01548196665033275	-0.005575215676423009	0.02474530444964847
-0.002858272230173315	0.05180940920277228	-0.02069539458687581	0.0007040485645221337
0.01014057783000977	0.06538390329843147	-0.0340380871001997	0.1150314257279663
0.0184123250802326	0.01536265054207279	0.01337384119455633	0.1275646415146974
0.02538421763564103	-0.01624830335912286	0.02336915678382629	0.043911112094555
0.01331845489889644	-0.02659584773552873	-0.00496820965870787	0.02590707087453803
0.01607620850910458	-0.006810161957598732	-0.001927648844524545	-0.01842155505213317
0.02591946386634829	0.01833672889959116	-0.03090687940375238	-0.03533216333206916
0.02749120127373441	0.01673382819208599	-0.03751031953262574	-0.03296661539595686
0.03288423224125177	0.03173675999616202	-0.09228242642290876	-0.01903233002540209
0.02977885146780989	0.01836761502054228	-0.05855881176575845	-0.02103058051478908
0.04005608636771747	0.01427076952163997	-0.008177794226214879	-0.006873320928441295
0.03620941404587877	0.0007490333240939148	-0.02851249910285027	0.0008133574152078909
0.03005243623738151	-0.02746189093725025	-0.01212241661329002	-0.01365380089347649
0.03547764859709905	-0.04769882730140559	-0.05711900094642693	-0.02039810785092527
0.03936759383204175	-0.03734600339736017	0.01275704148954543	-0.001908004305988473
0.03828887951718823	-0.005798228382158507	0.07947941044880139	-0.005770988660687385
0.03856352041809804	0.002780207159532428	0.124084231017664	-0.01754532445351135
0.03208968768024666	0.01190555138879916	0.1229587002928828	-0.03058530861386488
0.0228720026683889	0.04684379644811667	0.1513206341915788	-0.0006435412152879317
0.01422710209954097	0.03808648810081608	0.1069905218249151	0.03786163517169416
0.007852002753891531	0.03494113720169788	-0.01829132332084236	-0.01512049781452853
0.005160306648983271	0.03973959297574655	0.02278292335446074	-0.03713218588244552
0.0360565807404263	0.01187215811925641	-0.0106626094427135	0.02103156226558044
0.01808011117157107	0.002768553569694475	-0.03353374199063833	0.01121377873524468
0.0006287416292896547	0.003207788675490378	-0.04880125779981916	0.03777396640383482
-0.01101186016080547	-0.003826651012656336	-0.06473332652805165	0.05770973810871323
-0.002502756390664542	-0.03883269058510318	-0.02760758262528173	0.03744914270949336
-0.003783266338903447	-0.05239991879390871	0.007255849558058677	0.02782853563848313
-0.012360806345124	-0.08090441643958066	0.01722529770892352	0.01732897661796313
-0.00630287073094204	-0.06129011258539633	0.04865914886283707	-0.02748923164111363
0.004399244110115942	0.01118730110108415	0.03777668839718535	-0.0924841561150556
0.00494643723983629	0.04915672851924982	-0.008383429819045208	-0.1107401708160277
0.0002628727868154197	0.009497582610309944	-0.05955363073246941	-0.08157851832722106
-0.003012742602753243	0.005738690232461735	-0.1140948388345854	-0.02011662708637301
-0.006872536588218917	-0.007397847513273097	-0.03759716218166082	-0.01981398350666418
-0.006882960976125604	-0.01455839931100282	0.01693850714881865	-0.02399055321942566
0.0005032359532554581	0.02477312600366987	0.0129640516762589	-0.01315348653813772
0.003973774557317119	0.05511598305125489	0.0183804921515408	-0.01064917145718703
0.001281356958008946	0.01546865350755428	-0.009225492402577962	-0.03626135347789126
-0.0003695047094112675	-0.02020759646827333	-0.06393953451904748	-0.07346532279522627
-0.01807277899079208	-0.002633518252622478	-0.1093859086411281	-0.04816382679656599
-0.01594704063281151	0.0008006970120658157	-0.07186607051834694	-0.01739393982413083
-0.004281475656357565	0.001111454844809326	-0.04646459244423002	0.03850706157091324
-0.02008125395860422	0.01345052860833864	0.00125890250379181	0.02547293393167717
-0.05324665174025363	0.001846380307021658	0.110126614690029	0.007844744801380274
-0.03584519358685906	-0.0240268095455342	0.0335393417439766	0.004042704296993311
-0.02728103242261934	-0.01759737194800734	-0.02507078101041917	0.01410424558708393
-0.03648321627751167	0.02141641060390852	-0.07167750563295321	0.02723339737486227
-0.03523424682395567	0.008293285175530019	-0.02300835044730921	0.03205191735031203
-0.03132190303391874	-0.008498238970922252	-0.009050531110197149	0.02914039694773694
-0.02826701937286361	0.006376519264851058	-0.03373039044859379	0.02184558903158708
-0.01566860504343286	0.01855036487138647	0.004728770960444249	0.0106475749666985
-0.002406401216057063	0.05537204495695496	0.01582306508319677	0.001313840010477942
-0.009876661772908683	0.03171195177621117	0.05659208354835214	0.02271844744593136
-0.008591584369751635	0.02116462558071732	0.04498954179666837	0.01663392828259094
0.00389688539276433	0.008335127691426081	0.004833094689971769	-0.001672558698473179
0.02327634326109772	-0.01295320962109321	-0.002096224627720309	-0.02726129163196128
0.04676105253287647	-0.01494333790485858	-0.007105978074464616	0.007169287829406541
0.06080650251511168	-0.02585177257472488	-0.02547037633182325	0.05032698062085616
0.03834645908850036	-0.0295892791131895	-0.02117177329755591	0.041007176465043
0.01365123177511437	-0.03353629962682528	-0.007951427765156286	0.09081934884710975
-0.01085341907809358	-0.03790262255183011	-0.001925266311090048	0.05970397944495804
-0.01101794451140963	-0.04801326197851601	-0.03060399747051997	-0.01481098792781408
-0.04535950578876012	-0.04674689495406329	-0.05994083378048543	0.01301663827570352
-0.05874560267594679	-0.02577279490833065	0.04833922297811784	-0.0105665437936764
-0.05193218634229748	-0.06315235121142765	0.06173953352254644	-0.01418623956536285
-0.03353762308212618	-0.04743543040271007	-0.01660938003157951	-0.02606206385931214
-0.01186110227890241	-0.02344013499895524	-0.03928344333761995	-0.03597285894468091
0.01142074572534484	0.03276806690675153	-0.03167378937987937	-0.01589876078297938
0.03566090118118351	0.09888858749056541	-0.01796973249252563	-0.01754023298691919
0.03147934929624608	0.07969238173681077	0.03279492669538332	-0.02061940109396908
0.02397628486392227	0.07047056988132813	0.02245022790043837	-0.00198711593144191
0.01520453735587825	0.06568874552385803	0.05624686381511641	0.08936960393887436
-0.009931487456604023	0.04605071660368006	0.1292476938332257	0.06014316710277494
-0.03856316162507869	0.05499814687628568	0.1201072636613424	-0.008342290528830057
-0.05618530680050651	0.03875913113773324	0.08594879719136859	-0.01016395993446938
-0.04465823098626365	0.03341648720803209	0.04408846218126759	0.02061275219856254
-0.02316153207824614	0.02365016354453571	0.03668951375224441	0.07983149527180816
0.006427705157809716	0.006584375303071946	-0.01785286872066732	0.08668076274746314
0.02075049479303908	-0.005867054377038169	-0.01777229932261183	0.05716846316460423
0.02509441905959559	-0.03106244569648715	-0.02342155719603255	0.0425355006468707
0.04107199712152406	-0.05008143878632183	-0.04067061509487032	0.0168341469433095
0.03405387786589188	-0.06044808599126144	-0.03050421040983909	-0.0213479523343362
-0.000610385239544908	-0.06361388284933964	-0.05974438302375742	-0.06538328440482766
0.006339180583933875	-0.03959786527214629	-0.05777295718371055	-0.08461362808085127
0.02533184633994954	-0.03668752108315097	-0.06661849217075914	-0.07189033078698842
0.0425364887756195	0.02389196789318335	-0.02817198414323615	-0.0566255460901341
0.05137365352242992	0.0366221465228137	-0.01554003256374015	-0.03722269011618
0.03977692798218144	0.01362620569372361	0.0007056320402248793	-0.01618208162069665
0.02081920600648038	-0.02284386169972584	0.02276111382708567	-0.007189785662538837
0.003851610017106463	-0.0495191967050545	0.03584034918050199	0.03154753177194031
0.005802216444724718	-0.06310883978354787	-0.002338748432850129	0.03566458963446151
0.005164223919161202	-0.04538600828688962	-0.0170127388410945	0.02038461432301921
-0.007123433162250856	-0.01135900229786289	0.01306119761692019	0.0224013251068386
-0.01770732231017967	0.01272043915056621	0.02116945704857949	-0.01573624229361949
-0.003969324225705791	0.08716295832926016	0.07579043851394444	-0.131005614734818
0.002647053037152394	0.06974841166257016	0.06248099624219959	-0.1396570851861797
0.002877168025022474	0.005742852406606464	0.07528623886052029	-0.07627005584916122
0.009177408257354181	-0.02112629764220849	0.06223668376708155	-0.01863952005252573
0.02243476316700754	-0.01088024973833978	0.003965005025451844	-0.04288681624318011
0.02276799363765381	-0.001637389334771487	-0.04997445945259162	-0.0507037799722574
0.01926903562634178	0.01874239273374134	-0.05570037084115484	-0.008447254845470795
0.00985049563690696	0.04018013933225138	-0.1060420178391012	0.1076870829802362
-0.007551175163953093	0.005218349626102113	-0.1006160438035609	0.06050732219307481
-0.0003981805204111379	0.006262931292003649	-0.05454795591823716	0.009181249142712773
0.007990524363381161	-0.005582302078499872	-0.03311837249651337	0.02503165623062265
0.007449673090003613	-0.0007311819322086183	0.1393761921728087	0.024049093329981
0.001824709738002647	-0.02133660188875088	0.1229700186127237	0.0226578411803579
-0.005108185525756748	-0.02698147442642454	0.09616668245160845	-0.006256326768465333
0.007701557592229142	0.00797673541516483	-0.007088336119667782	-0.02282641523966284
0.005319120848753769	-0.02683408172737492	-0.0102342133134989	-0.01827876260773169
-0.0146121613590033	-0.06208865018148101	-0.004397544626726093	-0.001536439368360157
-0.01190214420835935	-0.06174244223868948	-0.0162117976173055	-0.01204706212960314
-0.01323455608286692	-0.05495322237504578	-0.0372168928606972	0.01678410332096075
-0.0003227637024040858	-0.03925634538934124	-0.05172182962720497	0.01500598160580808
0.008571724757988723	-0.01548293509311979	-0.05363804797918732	0.008669730863199917
-0.0041579338676184	0.01271393575152258	-0.03838689980894185	-0.0008014358561936237
-0.008664827106335248	0.01650938080461746	-0.01530109870437124	-0.008952002369851995
-0.03059365008696841	0.01016594170999119	-0.02752627692990639	-0.02015916524354253
-0.0113133537559979	0.02700198850760877	0.004318569176768983	-0.0101218129308961
0.000963799200485393	0.025101703440736	0.006963127697355319	-0.01155307776662545
-0.002446958234613231	0.02717319680884693	0.006436889884980463	0.0009262687035195376
0.009389757958846738	0.02089453533583381	-0.01579121825621748	0.007898847390922269
0.007844204972899026	0.02563890871927192	-0.02381483349959304	0.06809173891304254
0.004583189244899416	0.03859717783974306	-0.01934998662292998	0.1203807199044421
-0.01804996841342535	0.06745210846782421	-0.04580738913924085	0.02209480792247531
-0.02288214212045754	0.05878812301472464	-0.04491121450658461	0.01540341059289826
0.006284811309247212	0.05680361479272652	-0.02274542278072194	0.0665218253949042
-0.008322063034804244	0.02380079310459732	-0.01387248969657695	0.02895967638845013
0.008800307955943172	0.01515614634809616	-0.01333374386009599	-0.03758689181433533
0.001846152614743722	-0.006535907840800675	0.0187816751718979	-0.04933320911649759
-0.006733818623760087	0.003734027163518125	0.05574030123720133	-0.02065999862947011
-0.0138050223047744	0.01365283216850562	0.02623263223490521	-0.03875305237216118
-0.01381330533079684	0.007320006736567283	-0.0227150726309379	-0.01918500107572914
-0.01697041184708757	-0.0002987818942240042	-0.04273134554777242	-0.005844212162560721
-0.02840284931884613	-0.01061397699972555	0.0004569094395618682	0.02493297137016776
-0.07057041261653871	-0.01755254105251377	0.009376863278855259	0.04334584699791165
-0.07769851572783215	-0.02113053634021019	0.014755815245454	0.04150129907375308
-0.06107695385567389	-0.03622841378476003	0.06125169151046503	0.02518857593644444
-0.04709588817975226	-0.05764751151843688	0.03309081301684146	0.01319991458664289
-0.01573950886820486	-0.09073100195101472	-0.02172072383480107	-0.02083572434265487
0.008323231257760294	-0.1136162971850637	-5.46822382298908e-05	-0.05144950345170232
0.02320400280130248	-0.08857615241897293	-0.006391966358364729	-0.06307561170287469
0.05179650936582547	-0.03926411441422643	-0.01043161278855967	-0.05589645358993918
0.0607066041466895	0.01999471747108699	-0.01419408993028598	-0.05642020591115295
0.04989568646165421	0.09826154645729566	-0.06216790656390724	-0.03701475049729272
0.02459347071489904	0.1064974643284485	-0.04716887309332404	-0.01397868621743765
0.03980227745201951	0.06057390601215664	-0.001321652797460894	0.07395961574690738
0.02076055621336898	0.04467584085148828	0.05350369186217624	0.1021037042462791
-0.01394023591410369	0.0303149109003518	0.07965570264645848	0.02620253419286088
-0.01646385166924789	-0.001084635322648375	0.05597842559693744	-0.01332796600455517
-0.002811758218382276	0.002871779202309848	0.04969114604126119	0.006277148936439576
-0.02326545911730826	0.008837000512654462	0.03254567433861633	0.006436821834445825
-0.01480101617768534	0.004183794605954617	0.009541454800133039	0.03022774028500571
0.003833217580967312	0.006279838604641924	0.01312934585487904	0.06799594488740177
0.01334988206479241	0.009381524436065648	0.01807152789078915	0.05044926583455651
0.01301859150055048	0.008399826864312905	-0.005164503074061767	0.05047089995663338
0.009488117983712343	-0.007419847353455687	-0.001240936894870541	0.05831485806615125
0.00889449394465687	-0.01406928387469648	-0.05963650515739099	-0.02869218108671085
-0.00292982266527281	-0.02778659811730861	-0.1388243796387155	-0.02164343619485841
-0.003930326006411091	-0.03928083621442173	-0.08925444028266195	-0.03933849949015138
8.966032976030205e-05	-0.03871320269258383	-0.02655543595183863	-0.07680002515265531
-0.0009056454698033333	-0.02003269369819217	0.05909493432324357	-0.1089502091989427
0.005149673466084294	-0.01718789484742198	0.1561899855808528	-0.07664686502770532
0.01463623178719731	-0.01401873490954718	0.1275602816764354	-0.06664365911652975
0.02290610109039038	0.02986506739627869	0.07237472624700496	-0.0547380661929919
0.03578884895262546	0.06612978907214995	0.05649646027787998	0.001061456371628096
0.03188729546691452	0.03704144501321727	0.02432099684174543	0.008061459789407754
0.02560288828169889	-0.05253441973488376	-0.0128538236661509	-0.01567710633321565
0.01879158564629586	-0.1146728983857207	-0.02368169222179061	0.04599028851120302
0.01019405413233209	-0.1121725896460053	-0.01604814921069248	0.08009097429341015
0.001900744009170707	-0.05895933758235036	-0.03049086251269265	-0.008392036782187223
0.008385912676348962	-0.01459812174527431	-0.04830496436820355	-0.0180636862906817
0.01890898806444074	0.0001215981539163915	-0.08932684712297675	-0.006308408921092829
0.0150415807047645	0.04624072228627516	-0.04555963051787994	-0.0003631688667655557
-0.00471022036379977	0.06808511195228627	-0.02676576055538936	-0.002954122375685173
0.001059270553346628	0.02483896265767669	-0.01052341919671698	-0.01603006404504117
-0.003479771500795896	0.004034234617525789	0.1003605172449979	-0.006062565317664863
-0.004491880423962344	0.0004919288574743322	0.09640661427098918	-0.01547463239672323
-0.02195563564752644	0.02573506418361973	0.04520393812324597	-0.02223055448989585
-0.02878863470298984	0.007018907644269767	0.002965662760610202	-0.03199434544061736
-0.0418334223632563	-0.02095027575407992	-0.03221666323399078	-0.01124663501190135
-0.02821263264155979	0.0103867213173435	-0.06972099928925359	-0.01230193319066781
-0.01595608409723046	-0.01467539003430896	-0.07023882987759969	-0.01866249868113104
-0.0135186106842063	0.02267255776371843	-0.04953116620391346	-0.01698866107578173
0.01309131286066278	-0.02726464172871711	-0.006257632533842855	-0.02124967695910892
-0.007913748455554932	-0.05539759793941139	-0.0007076624118308955	-0.00635019574153997
-0.01419829114029822	-0.03567729402178938	0.04765212910654267	0.07571254711523194
-0.006166587519706381	0.04309444697354019	0.05286377801008042	0.1012957777470476
-0.008892594390765261	0.1162828824228742	0.02326904506956095	0.03135501231382933
-0.0249939829167828	0.1272348309992312	-0.04109406806316248	0.04631372906676465
-0.03039117783418558	0.06939108383209583	-0.07827525704547945	0.06148552460557445
-0.02963706426078959	0.003774551000219278	-0.06227405733872968	0.03292133538588977
-0.02234009579780353	-0.02464471288606125	-0.0544766152345119	-0.01469318182291364
-0.02197641889572989	0.00546178016441996	-0.02859289809974037	0.008859389093655575
-0.03418504531990125	0.0101093618526155	0.03088704592953555	0.0299585736605835
-0.02339910627237279	-0.01412198843475404	0.001631516206684804	-0.03325454187519707
-0.02093553924921939	-0.0210041367351756	-0.02971314744662203	-0.05735459299662373
-0.007958966411733069	-0.01638923417048185	-0.03916912749439845	-0.02039833532461081
0.01558408203167074	0.0008108342666120986	0.01640432525532199	-0.01273820954941905
0.03384789566044893	0.02641154003739737	0.05197757461134081	-0.03792879225735919
0.03779702738484686	0.006306584267012877	0.01911923934173476	-0.03070671668050959
0.04113696353187529	-0.007591134119317356	0.02059870224240629	-0.01998340754816644
0.03654085356084463	-0.002162529707071321	0.01720118688271279	-0.003370711882868875
0.03914096649056974	-0.002495544962277182	-0.007638352699415769	-0.006410228193376081
0.02300738617523376	-0.00908430379165647	-0.05434593858133883	0.0152220768465684
0.04630862319766504	0.051531058506768	-0.05318785295219461	0.01690035000059712
0.04097887366595224	0.02107512259531843	0.03586604521699308	-0.0545114537963502
0.03171258185686657	-0.01358568792075492	-0.004312733373266836	-0.07362856358923237
0.0223173328873608	-0.03202433032005473	-0.03459690239006666	0.03285161873610771
0.0137528901916894	-0.04364318364531547	-0.04088268090551224	0.09462068365408709
0.008994910592827698	-0.04569442545476629	-0.02748491538684472	0.09015510550080055
0.0143382223841812	-0.03470612415867323	0.05432176581043914	0.06846265049329235
0.01355427832144913	-0.02086951957283417	0.05831257830903663	0.05107867428795159
-0.02136719667034428	0.003668433264278044	0.03083455546234853	-0.003068357231126616
-0.06876429610190907	-0.001926412305463006	0.07365365832203319	-0.04878616612632955
-0.04808288741225823	-0.007266273378177823	0.1150969281448787	-0.03743344597660533
-0.03331063190793079	-0.01463185578095255	0.0789098072712065	-0.02301076816708325
-0.02062509535499192	0.004808512406067597	0.060897250021286	-0.007093777719238804
-0.007715185543599997	0.03519773163209199	0.02042281702411168	0.004419366922501748
-0.02261876429938351	0.01418017527688517	-0.00696484665553993	-0.01105581155949485
-0.03646703138496145	0.001052983379457891	-0.0192943453788629	-0.001051358805961489
-0.02536073778908121	-0.002595947905450685	-0.009352637055769311	0.09899595528716752
-0.002459759486699528	-0.004907869884666361	-0.007548682416050996	0.06506891970011988
0.01367051042817965	-0.003603590862410437	-0.0309081144584837	0.05480990761155976
0.01279368407862265	-0.01300328304138975	-0.03827092927209849	0.0633904997219125
0.01208580969063758	-0.02234418924665829	-0.03942175436230268	0.004834463892448458
0.01048031285074494	-0.02936083080903377	-0.05145091084009657	-0.01787211607708426
0.01372601933574279	-0.01758669119279025	-0.03662946263775974	-0.04505461034705781
0.01277653886856803	-0.003816463715973404	0.0007778598916407639	-0.01551689662781273
0.001873489939619536	-0.01451283140764831	-0.007560191438032363	0.001002273683255507
-0.02237934684082206	-0.03641655762840672	0.02484945337394801	0.0008901785888723576
-0.007464361764427485	-0.01627690713826779	0.06159803133302411	-0.03401469866036137
0.0105402439425589	0.01149039072700936	0.0266336436928356	-0.06199218097850395
0.0294629489385769	0.009950837703000566	-0.006463879798693856	-0.06469228072163441
0.04033784767337595	-0.0003276468194150603	-0.01134897201773346	-0.05840920284077325
0.05186316468302034	-0.007774599217872895	-0.05009202530102937	-0.05447073034306153
0.03878566270380256	0.04371962480776841	-0.06470014563260067	0.01117270340315601
0.0226811989764308	0.05857824731769444	-0.1129364800989552	0.03685133220819029
0.02099530268626553	0.05484340104396391	-0.1189338538309145	-0.01005716351002829
-0.004925962800271724	0.06421471730019207	-0.1208150898650885	-0.0308422389056034
0.008152564267501114	0.0732411521755378	-0.07090776365231193	-0.01598224700318095
-0.01108645180133042	0.001085009238298461	-0.01798355188788902	-0.01322610922838332
-0.04672840786659289	-0.05531573914880854	0.1024617316473544	-0.01198556670353007
-0.04316080742963564	-0.07574091776224695	0.2315812735403949	0.03817984397811538
-0.0137131038773778	-0.0888005043779892	0.1153583584499368	0.05196767127629425
-0.008603761654472367	-0.08368957827886694	0.03992682902499384	0.03637180277333738
-0.01226584528669709	-0.02962820150434129	-0.05026753231826029	0.03518371940488304
0.004560874518011792	0.07604672749899094	-0.0638538827556419	0.02348587772076352
-0.00782815579082698	0.1184424780335732	0.005195755435334046	-0.005816060598174415
-0.06149406494223381	0.07587028894666553	0.1019014321587404	-0.0400751729146763
-0.06388479746082508	0.0688128431541173	0.1210778840368537	-0.04415652986628174
-0.03957307426111821	0.007112245667246869	0.09050598662762302	-0.05472165827533065
-0.01291998627251446	-0.01540358207167873	0.04838258902054245	-0.03216791406668763
-0.004816857561158354	-0.004613132031322549	-0.02534921232332494	-0.02841111692576355
-0.0009410547926517609	0.005961828226248616	-0.03318015722890744	-0.02214986069288919
0.01407769685096623	0.02019397925899878	-0.05004709740738085	-0.005227526306429244
0.04321403818987345	0.01664111939061608	-0.003540271243159962	0.01047095811426376
0.06534754837787352	0.001636370491660664	-0.01857950191148217	0.05084069340695312
0.05462211181781038	-0.03182991497996111	-0.03652631401724808	0.06309308055806367
0.05402483735842167	-0.05285453294702479	0.01313852029855543	0.001920887977755456
0.03932787383005748	-0.06866788151630385	0.01890063222336971	-0.07568432783495881
0.0090086068645808	-0.06143883846312022	-0.01628577390216051	-0.08743813140794376
-0.003501205396346005	-0.04219869455373864	0.02203936050804351	-0.05466093136941135
-0.0283358496455094	-0.03398599117373544	0.08562559255503246	-0.02421773441701615
-0.06154457115287036	-0.003317389239528517	0.02087128257055591	0.00961891783022634
-0.06767119419998203	0.04638866287853696	-0.04416928972058472	0.02105127400432029
-0.01883277720833655	0.03015696615510083	-0.01571397307674162	0.03963257151845145
0.002020562237941144	0.006323452913229834	-0.003897168705113801	0.01335314712878664
0.01206600988972015	-0.01855731245748559	-0.01301362086099663	0.007765132842031184
0.01159148767245322	-0.02986338651066169	-0.02022863136860937	-0.001930166965226454
0.02137341584688387	-0.004994057005881183	0.01131547879215857	-0.02834353712740443
0.03665662441187366	-0.001357451624286076	-0.0001562495593327609	-0.03757259043029149
0.0008713561622913918	-0.02837134440681782	0.01483305573435179	-0.02348302597222744
-0.001624634360541218	-0.02821165533737687	0.01618408716489059	-0.02179212494046441
0.01302652848621918	0.01066628828107806	-0.01307214349139476	-0.02808724700053462
0.0124366098822773	0.01574197369534354	-0.0382602204806199	0.04909140272588346
0.01236572179911155	0.002231165959804712	-0.08337125315966563	0.1161352690243139
0.01700285514765245	0.001054064709330027	-0.09668288848117038	0.02585970192064752
0.03065609545756781	-0.01566193200811824	-0.01831329240673337	9.291079202223954e-05
0.03325232345409591	0.004908140995167084	-0.01315095183626638	0.004936352605410799
0.02116781344276902	0.02628823758258178	-0.05589099626930986	0.0610207302839569
-0.009845936128450541	-0.001227058797482517	-0.01045411734097072	0.02015073304478866
-0.01565317447449192	-0.001004935714128362	0.007321422955626652	0.007535924711096821
0.0005877960856552034	0.001588721185244582	-0.01293066501305155	0.02333695715278123
-0.01312245873454347	-0.02505030933142395	-0.02688875152687396	0.08730134568083771
-0.02246058150091598	-0.07405493419335876	-0.02721977254964913	0.1374142898608857
-0.01734807449475098	-0.07038660725967102	-0.04593559317201809	0.006835615091695126
-0.02081314639883709	-0.03352667369312291	-0.0931905533394637	0.02971331339713109
-0.02280464942156917	0.0238884280243609	-0.1030416998926522	0.03245788444903562
0.00475087636926256	0.1002698188308302	-0.07410725624036925	0.01560361993546168
0.004982709558538632	0.1307636821641722	-0.03512211139285649	-0.0169418021486927
-0.007796145851174077	0.08892389610677785	0.07738487021224798	-0.03871376920890034
-0.0230391562789389	0.0757648803662966	0.08590948925031699	-0.04004465603349289
-0.0394765204646622	0.01027626056294336	0.06960763035166569	-0.0260968976130729
-0.03915536646846831	-0.04853891193242222	0.05055135203249001	0.01269312174266054
-0.03828577387443438	-0.07405387252541668	0.02720415532146923	-0.03087451958892205
-0.02966930987444537	-0.06413722969903302	0.04843339828300623	-0.03442019603280346
-0.006367999110138099	-0.03192406658403713	-0.004323613359951246	0.002258930762281876
-0.000295641016200298	-0.01301791627604736	0.01658147620411313	0.01834282489424819
0.001843198519687689	0.01653257901524924	0.07569314159251765	0.03877815441345363
-0.009135154650999327	0.05159371803397161	0.07971489542432006	0.01752410761473154
-0.0105193941909565	0.07532196650449445	0.07164541804714263	0.01791225388391035
0.003812409062740172	0.04816465808066708	0.012517895650269	0.03549386181168875
0.01687414396962431	0.05441804733375815	0.05283971363414611	0.02631316339415986
0.01824488962138529	0.02945791851521356	0.08741957628384975	-0.04954594834172583
0.003477648427938754	0.005121448889580137	0.0373010945508574	-0.1131476515431451
0.005971873855759274	-0.005147055031999564	-0.02111940490645609	-0.1170111237332436
0.004282254400768824	-0.01178853483029913	-0.06003280020946064	-0.08452758123477698
-0.01637932226206818	-0.04385984745279856	-0.1624742968009481	-0.06382117953915317
-0.02974901229870534	-0.0515364028966907	-0.1281363658654176	-0.03637957681887571
0.01681280987136349	-0.05784766134037931	-0.07990902414453141	-0.0201139987642357
0.04180157900404245	-0.06083546537804065	-0.03261672741893575	-0.02612522313709894
0.04151391297814581	-0.01905976808931501	0.1167636729527698	-0.03195118581451301
0.03234812181599522	0.008458137453471168	0.1445404527277412	-0.009899104771340041
0.02015753043138833	0.006077591559702082	0.03168595449508117	-0.01136125436964349
0.01587368200206228	0.02201641339366203	0.02932548322514542	-0.01420778881051847
0.01110916869637769	0.05734687630446372	0.007641424039853101	0.0005371924185488084
-0.00550410725436605	0.05069078013551115	0.02378877544249739	-0.00774970631221516
-0.01414568025640034	0.01616513432997698	-0.01815947875489618	-0.008097618141766466
-0.01936399623418737	0.02987921406735089	-0.02090507644628401	-0.006357174107070185
-0.02767330807774309	0.03396020449286469	0.009172889820644953	6.843817143604557e-05
-0.008422377958481555	0.01098100232250036	0.008414957821974291	0.03171820149533664
0.01752557356527815	-0.006323293472457581	-0.02124038339152449	0.07100484072542032
0.02207706768029983	-0.007345702499703421	0.02062183427646591	0.1121202668783873
0.02945777362168636	-0.005263569837603529	0.04769579476516665	0.0828927867441932
0.02941990219450561	-0.008381783340639347	0.01609149236470237	0.04587389188820677
0.02708705754971869	-0.008372178626186014	0.0309406227779417	0.01782055510941663
0.01833232958217796	-0.0185035419613169	0.01792174761150779	-0.02119066860792237
-0.004743916711109463	-0.01863310471994343	-0.002524723120880424	-0.007555531311467786
-0.005391072668992486	-0.01184269208213579	0.0008165370624329648	-0.0002197946574650082
0.01085774500128388	-0.0335329649553553	0.0006734211542238216	-0.007204790213097478
-0.02188969796739661	-0.03599260244238837	0.003431086988098362	-0.0135542844563553
-0.01940329282703161	-0.01129756533732244	0.0423637730966256	-0.02948160941639925
-0.01434123670570534	-0.0273816032184335	0.09930323950452015	-0.07982009484736412
-0.005229492861838558	-0.02388315698722382	-0.002833874530110746	-0.07661201402666923
-0.008604929730672993	-0.03462609515967766	-0.07230346374364668	-0.06336076732783313
-0.01106041595904658	-0.03151643139916117	-0.0941264524650109	-0.04784912558056963
-0.01931696165572687	-0.01222965805513	-0.03240047661454283	-0.01785882700371815
-0.01873412931082642	0.01522344382503056	0.01152497268726835	0.03813651422471712
-0.01881508047711405	0.01672837176518378	-0.008780624113309408	0.1025018829618733
-0.03027741320982816	0.03177489066916215	-0.07206337406804936	0.05159098570987967
-0.005753029337455993	0.03165635111883608	-0.09908921777435237	0.002586436476111176
0.002560275657507527	0.0045215506096246	-0.1113003772226001	0.01124981842299312
0.001273509057180494	-0.02048130895408418	-0.09251545538621994	0.1113029615775687
0.02434516531778899	-0.03432112990755869	0.005348303202022764	0.0810420301211002
0.0323787603742695	-0.03130471002048241	0.08021162215956998	0.00757360512318838
0.03541574360918525	-0.02073745812819274	0.004982930455947958	0.05535827885815431
0.02512275618915414	-0.04560791128165537	-0.03773808310145275	0.06686584053783311
0.01304287372573162	-0.04685600007341734	-0.03398886635171258	0.1322782057081682
0.0006210772264693893	-0.01570366605343328	-0.01002869664164487	0.1166957416967896
-0.0003738612408670013	-0.02486493140159379	-0.02161382865431177	0.05520037626210967
0.00974610197805008	-0.05198920868792665	-0.05334476535513458	-0.0330348747278052
-0.005331521148499628	-0.05562067614340695	-0.0642220981068302	-0.06167784780920903
-0.01828663415845063	-0.0426824910938941	-0.010201076357446	-0.08238850000946156
-0.01861747675010356	0.0488053390342064	0.07166507945467727	-0.05654824531775467
-0.00139241199670318	0.08416253749581579	0.01079667405132056	-0.006329241267610389
0.00289899546518322	0.1381921284800723	0.03872948337020934	-0.02738035695679266
0.004898646366943246	0.1129184940210863	0.04121030267153172	-0.03249535631927365
0.01294734529042778	0.06817967341002455	0.03905703545564011	-0.02022261864513939
0.02188995008092445	0.08684635268216916	0.06702726565044426	-0.03730665075105968
0.0206735468496601	0.06061632132416279	0.05554236313898293	-0.07464028115662252
0.01043423652094446	0.01487220144079125	0.05590196554281234	-0.08339619916423771
-0.001251837399325921	-0.007305915451814386	0.03740248535592349	-0.04622572910310212
0.01078918690583876	-0.0005532353539372242	0.01268879039984834	-0.03234165774234225
0.007248100029582699	0.01690067822700912	0.001387373682711931	-0.04484297400834816
0.0007170647825271888	-0.007168844815955819	0.01353297869035253	-0.03677640842097318
-0.0192335301243588	-0.03148855494581641	0.01553447458715552	-0.02172384664758592
-0.04679124947705739	-0.02013563187752923	0.08033592482888402	-0.01761631149955441
-0.03951419782518835	-0.01982798987144636	0.03580280055736102	-0.00798993326583199
-0.04289432884747119	-0.01375836279351086	-0.02289025882483348	0.008715378769251757
-0.05303874787979968	-0.0301430551875618	-0.01117297164232008	0.01225555121784761
-0.05040050930288529	-0.03153104243957009	-0.00773043845824614	0.01250667112285383
-0.03474965626510478	-0.01245328243606861	-0.05832246836992364	0.008847292984035313
-0.02986344688391044	-0.00319778171095411	-0.06501696366841633	0.01001705691033587
-0.04488051299910776	-0.005448995634480308	-0.07659305999339396	0.0415503532053141
-0.03694982051414894	0.00166013499834612	-0.07338299662978433	0.06691780904950288
-0.01478837167250804	-0.005757684789533626	-0.08011713027681668	0.02926042649670256
0.01634080795478991	-0.01322688554356003	-0.06014710402794592	0.0359041223934078
0.03485283476467698	-0.01815706666559424	0.02447572013329058	0.0173508610950932
0.03786832461320465	-0.02402090074990065	0.09302244275715331	-0.005084218669745157
0.04572225082764731	-0.01106907004835942	0.06408810673285738	-0.03955973773948254
0.04647237344689784	0.02783721059460054	0.1448508014880138	-0.04494732977523318
0.03352852715866184	0.02748108453116331	0.1612173515113521	-0.03107313883678026
0.02080928890367899	-0.005631784651520981	0.05393450701476538	-0.03789652732733097
0.02698894617639925	-0.01433668996970182	0.003305528105208037	-0.03835888817442466
0.03544469042969359	-0.002532634005977918	0.00873752337971277	-0.01679897119112867
-0.01556517115309181	-0.0222283051205405	-0.01599081590744202	-0.004527108024047464
-0.03621938964406615	-0.03870906130164756	-0.05617679767307095	-0.004954187967302458
-0.01570952752507895	-0.05919093682314892	-0.07096853092844667	0.00402984724874117
0.02546476164061707	-0.04400306284017429	-0.07401719646815556	-0.02109626534829108
0.04978974190036652	-0.01050293025078819	-0.07090236103418668	-0.01878764053718534
0.05418458814984903	0.04731863038764529	-0.03843373873896615	-0.04873902477045981
0.03040986701386736	0.02855272272587035	-0.006115501649849911	-0.01138316615386393
0.01333010733666536	0.04253084449943095	-0.01448718907224575	0.08449560758985269
0.001800980286142925	0.03569806739362896	0.01451931145789103	0.1423408712407748
-0.0002007584011954388	0.019298429138111	0.07528054769197234	0.114772949029663
-0.003074692289750943	0.01160745927300437	0.01809913498689857	0.06104346503523669
0.004548296206382679	0.01937677139494032	-0.04222968963100782	0.1062605628768845
-0.01071514398252093	-0.01447053192926037	-0.04505763759672696	0.01307346376480767
-0.006415369097100139	-0.01655245132646789	-0.05397384307584045	-0.07414441002727346
-0.00799223494187396	-0.03998147446218284	-0.0434178778528024	-0.06964933947628285
-0.01918697932247246	-0.02295054652412655	0.001504966381593364	-0.05962935730784341
-0.01100964308973351	0.02201644516312852	0.02261046511152571	-0.04104171144167432
-0.003087689513780052	0.02075804654373185	-0.03968059852395114	-0.01176565742187869
-0.002395024250564044	-0.004552281638288312	-0.1075007024071953	0.001167108993744214
0.002033864934317825	0.005079441131254794	-0.08552625695745075	-0.01115162192199369
-0.01976971749679023	0.05079436754621579	0.06517561256668387	-0.01665684263481438
-0.02191767850296973	0.02174695752466809	0.06569850317055105	-0.01265638401136136
-0.01320227760576681	-0.01086584176668101	0.04976410142647456	-0.009660816885716437
-0.02480362090081245	-0.000131746596525846	-0.03510454395354889	0.0006810745590538978
-0.01339129114270699	-0.007781207224912079	-0.06547045638670389	0.02361487145864964
0.006383329765927356	-0.03659440127988661	0.05294190942240851	0.01137687993174538
0.009875713883108449	-0.05249658730481983	0.008148378877914799	0.04588923796887045
0.009699552372153497	-0.06847667499509294	-0.01374497900782159	0.01353101484285601
0.01998185047496217	-0.05668462633251104	0.03371498461089067	0.00525454613832938
0.01004152107289062	-0.01939233055240809	0.05067843328762155	0.04156896797495993
0.001316640980996695	0.0175146797999143	0.171692260730496	0.01937859476943316
-4.137659264093218e-06	0.06557963686082399	0.1060981877345107	0.03149429648796324
0.008028140653420182	0.07711913354101084	0.02397945330200534	0.03754685989138135
0.006032057117161231	0.07023070638808543	0.03576813362060161	-0.00343159547100796
0.003100054181630888	0.02090770395579566	0.0751265034486966	-0.05034174444136491
0.005822120410807929	-0.002987317401590849	0.04433721513208467	-0.05020758161621831
0.0090464102597038	-0.02108235433592827	0.03512998756325699	-0.01309893382589962
0.003959876765995737	-0.06095950818644137	-0.01809624114519851	0.007422511166098801
0.007414145739359599	-0.06336745032483138	-0.04312598682105608	-0.02478003109790696
0.01671169542227514	-0.04308585368080852	-0.008133254332927546	-0.036079038766134
0.0181589536801479	-0.00930958780450019	-0.1038721538717765	-0.02087860394466287
0.01563725689517875	0.05446374498786825	-0.09233809819798761	0.001522940505252237
0.01249999741764539	0.1190675759075105	-0.04397793262097847	-0.009855016492648961
0.02483517928109267	0.07214723328183754	0.01063605107192084	0.00758302537880591
0.03339507378407726	0.03013767139594135	-0.01107954333232735	0.01364794321922068
0.02257497699609437	0.03228294345747932	-0.03173841523342233	4.480769441408245e-05
0.006832004894815924	0.01808230103580877	-0.01266125561326224	0.01469726049740189
0.006164263826851122	0.01385120402357269	-0.03373922289455479	0.01211099990261165
-0.01312651952983154	0.002548951810164483	-0.06387631448306316	-0.01965156695474396
-0.04930782117494195	-0.01942876531212392	-0.06336519455163382	-0.03603262177466088
-0.06430189654722558	-0.0262559090927056	0.002274371323153451	0.03361517235568238
-0.02132021941716812	-0.01373224490185842	0.02025743227803234	-0.0514399252403364
-0.005460733353325898	-0.01316915662466948	-0.02358673957564427	-0.1167589563801325
-0.02747303229406764	-0.03049544915056212	-0.05360621593874505	-0.07856741871870014
-0.06243906250572512	-0.02212233861609626	-0.04153820866242259	0.01111458302282603
-0.08578754256799666	-0.009879165080650024	0.07596399295563946	0.04887226488288039
-0.07329007649011725	-0.005535395763166131	0.04324692907423889	0.08071641835874312
-0.05889072219580499	-0.009456193636283607	0.003748886793070778	0.06521814839860914
-0.03060059054699934	-0.01271043300271543	0.01743326304808886	0.03435726132579758
-0.0104574660022578	-0.01037136806236985	-0.04440392783195542	0.01323031693022335
-0.003924019472012048	0.006702410785865454	-0.07201316364802544	-0.03286545819843154
-0.005764944859239135	-0.004079478647378502	0.00890998659506221	-0.08003386983612608
0.01098409042805707	-0.0151712418348687	-0.002578688358096972	-0.07475655572551394
0.02006026307900479	-0.004914574823893699	0.02197342979126366	-0.005100854235552687
0.02710137243381678	-0.006564795322409314	0.08339134081713916	0.028105069618292
0.03263385348444182	-0.007196255825143774	0.05609724195091186	0.03118536808875369
0.03719555359713562	-0.033221806562286	0.01346034462902047	2.947835726693684e-05
0.05306139155990033	-0.02721629535196608	0.02348073894879355	-0.0210567405155168
0.05722964971259971	-0.01726106469729291	0.002246977127304077	-0.01015359481160336
0.06032056361063959	-0.009413336199810144	-0.009091901207082965	-0.0001855669748087603
0.04249725290546308	-0.01777490118284382	0.02694787751715736	0.01706088726392843
0.008969355943595835	-0.03076552690377058	0.03291761484913995	0.02248031216835647
0.001194851535353218	-0.01630745982177143	0.06426026606777291	0.03285995856039733
0.006920726668106325	-0.005044393571738969	0.02536904196196505	0.06509681936999076
0.003347369017443294	0.01620238487013173	-0.01010675220625786	0.0528608828629425
-0.07793390106665495	0.008312491296951134	-0.00479054993551329	0.0528218787939955
-0.06613553061974914	0.00719487418957192	0.009367646410153826	0.04302305661755258
-0.02328286072814036	0.02065205088432591	-0.0263914277253111	-0.007233351092739442
-0.01611689605599924	0.026512614045034	-0.01859127028708337	-0.03693275449593127
-0.02064978397411955	0.0566150279792182	-0.02865168727937345	-0.03730768917118134
-0.00483547314893061	0.01042222378152819	0.02096884737630881	-0.02002854861086783
0.007931649208361558	-0.0143926598816476	0.02831601393712593	0.005890280034522272
0.01174775694178853	-0.03304359926454014	0.01394290057716449	0.03788500619416856
-0.01082781285049448	-0.03360657648928133	0.005159978770949003	0.1062272363104165
-0.001092582428798551	-0.01813738122110351	-0.002481438332432362	0.0005953088950850169
0.001720067209903085	0.01956813129994501	-0.03692497335996772	-0.06334098418475395
0.01054790350406837	0.04745747544825115	-0.007949457875934186	-0.03806904561352743
0.03137560769429214	0.05449460019496045	-0.03365135545099176	-0.005549000248471253
0.05034420861495438	0.04418669605058424	-0.06882395367471643	-0.006705757018670234
0.05092118745165219	0.004455560291959575	-0.09638213220785047	-0.001957739929077218
0.04042893146632127	0.004173501097018579	-0.07063397436127068	-0.01710495963286716
0.03026264341942275	0.01112645916553134	0.0273889325018871	-0.01982193176213322
0.02394292943545287	0.02369439513614248	-0.01453809403900996	-0.007009924430648191
0.01633082061038181	0.0104687956658149	0.002426944121834198	-0.008468555245331563
0.02464150151051457	-0.01258701754132081	0.06712574515501656	-0.002471557396397264
0.01710419375062644	-0.04351258145264308	0.06455095939957915	0.008996903204914412
-0.01136804453740047	-0.04166138113480992	0.007756701979184038	-0.00403394590564067
-0.02780335496452863	-0.03063879326197663	-0.01448171682387608	-0.03397226513330087
-0.01384019289610302	-0.01152051576905456	-0.002900179823058769	-0.04749650089403859
-0.006682679526168237	0.01714619939182446	-0.04234064246831477	-0.03572428257729313
-0.003836085302038749	0.02311317525809214	-0.04641984665862189	-0.02796416950348795
0.004272514579625856	0.09046871790283577	0.008568412441969051	-0.008624410025334319
0.004403450538020844	0.08568895085475389	0.03388575769405737	0.001840101292616543
-0.01797490518632144	0.01926769029094775	-0.01026358402847141	0.03230499859555504
-0.01247209593499169	-0.0190490813492527	-0.01474868199752353	0.1269358837196895
0.01910629924026597	-0.03401935246840736	-0.06096224378813741	0.07867764572924141
0.01189542874038762	-0.03025801209112862	-0.05279377396128047	0.01775000467705751
0.01506816759756812	-0.005850922894635254	-0.04488742459147901	0.0337711005698062
0.02889479733171215	0.007660408604223633	0.0006519296612260384	0.01318939495851654
0.0259887811920457	-0.002245301024810228	0.05959628146932563	0.03650516795994182
0.01293242753791522	-0.002793591732003098	0.1424835069723463	0.04639955342426576
0.007434105464396958	-0.0135631203829724	0.1016523477122194	0.0453158071792276
-0.02970241972087061	-0.01834693854532617	0.06146943845149663	0.02618416537276573
-0.05656209467457022	-0.04708005522611874	0.07475833578625939	-0.06276006982128718
-0.06765205260453407	-0.03679286162296739	0.09652077643242955	-0.1477749553298952
-0.03723379582573698	-0.01190837218042611	0.02652500329970639	-0.1510405115243157
-0.008863032875394222	-0.01021240125865298	0.002486177920099715	-0.09777266657120584
-0.01000774519109604	0.002247351628236775	-0.01581066610706122	0.06718844040043667
-0.03262588182751768	0.0004306078902385488	-0.04049705376967761	0.01255397343486495
-0.02346588653571512	-0.0009685633530343155	-0.05048644147762116	-0.00908721925779005
-0.01749398878736616	0.000938739397998675	-0.04988663699190365	0.01913283693949412
-0.002488420590806748	-0.005045453385929117	-0.0587160812677743	0.004582807849598579
-0.005083653519535809	-0.01372686620080661	0.00860834414815787	-0.03710439088399893
0.007345310931666284	-0.001809066597921792	-0.04668674525439422	-0.001629191053850647
0.02457614616018445	0.005293290850204022	-0.03769845090865707	0.006971581402252546
-0.002480186028994951	-0.0357344734354627	-0.07438796116548049	-0.006498741739442957
-0.01840404918172975	-0.05276334636688085	-0.03356306578879936	0.000984125288101852
-0.03934368001355524	-0.05669089885464969	0.06373297093158142	0.01910963778192104
-0.002432411406357788	-0.05027593446677789	0.03009255264189595	0.0143288478356011
0.02767206772292564	-0.05896185510022351	0.01490357921364891	-0.02100485055464011
0.03579236475237499	-0.01292776576744331	0.1166501269859252	-0.01555659519792339
0.03615091861654706	0.03215350050834972	0.07746636885020826	-0.001984332131155057
0.02682857809651668	0.002900234782284961	0.04125682311558008	0.02766031519545007
0.02733676202288197	0.0220692773325386	0.01408390993874509	0.01561905839183838
0.01582651519011184	0.05396791283170081	0.02231146868787454	-0.007204851333824033
-0.0008706852599047821	0.08809608535838767	0.009512661934736636	-0.01526650391472251
-0.01069374222443475	0.03884511693691305	-0.01830481481784859	-0.002902626789234334
0.001830088303385506	0.02247121459108279	-0.008615098735559927	-0.00600023799732512
-0.03023785326238553	0.001096508432879147	-0.03502241357709288	-0.03719883486617893
-0.03550641635841058	-0.002308661321806145	-0.04662727583455561	-0.01624955334685761
0.00110071659064319	0.07182813761174012	-0.06308675573080662	-0.05593037236267247
0.01532546487237514	0.04541484717565458	-0.04625977998135998	-0.04604085534220492
0.006358870304030783	0.02726150544316277	-0.01557550238641568	0.08176595569630209
0.003646273565609717	0.006080879896337332	-0.04660451548809336	0.1354892165071514
-0.01763679891794524	-0.003725522473396576	-0.07732317496558823	0.005952035635213787
-0.0578460444333182	-0.01169172387793315	-0.01409345411799206	-0.002520247386113106
-0.07109868398531703	-0.001821208315337909	0.05078914455977662	0.07112684081151019
-0.05168205882284398	-0.01791104620523585	0.01096703454958128	-0.006061959773906914
-0.02414384925873852	-0.006087324375147832	-0.02695341430668013	-0.03612477347234661
-0.02040734045742584	0.01014769000974751	0.01178184512671536	-0.01928456635629289
-0.01572740894220456	-0.006225995165822784	-0.04062136634249405	0.009947674710668096
0.006417205238988845	-0.01931922077205653	-0.09122914174233374	-0.02787303973810557
0.0210902366154746	-0.01663580340566679	-0.0860186485980473	-0.02503979987126577
0.04812077953055004	-0.01644258649280067	-0.06417606881798042	0.03590503996161132
0.04992128716972371	-0.03192069735600783	0.03172696485360018	0.0305234905701251
0.04021432890747293	-0.01988018959881553	0.1502014439417817	0.04506308354739817
0.03585486869535387	0.06291589680793903	0.1243762696947087	0.03923505809327886
0.04468949772731907	0.06699911340527771	0.08034397436969029	0.004782372246041281
0.0340031226565766	-0.01587305572763125	0.05373279700216683	-0.006948596729028436
0.00720766183916106	-0.0522496681716798	-0.02520053915762431	-0.02137587358621315
0.008140705163110365	-0.01964888022055784	-0.07735570541687783	-0.01096140540160715
-0.007555700378214234	0.005735333738164113	-0.03664743253737142	-0.01236533105060618
0.00284387546608258	0.03851363059375557	0.01151670649491165	-0.02046298080506621
-0.001234031082202487	0.04500628138843405	0.01110814704262016	-0.0166970640110646
0.02196455786024592	0.03734623516509506	0.02248398964367458	0.02288179146251598
0.03115178519537785	0.01025727501299286	-0.0003241850638217281	0.07846035300078343
0.03236226313448484	0.001957286616983489	-0.04313757460416529	0.09606835331649512
0.03239595427739474	0.001616509411318216	-0.02112653572473839	0.06522383047421858
0.00605327971469779	-0.007027221596086313	0.01791822041225121	-0.01463184751694332
0.0008096842698323527	-0.01876753240244355	0.0423008342399215	-0.03180693615792687
-0.01172850718886675	-0.03386054904054996	-0.01690764242949988	-0.0856749421974284
-0.03187904554663748	-0.03226051948952396	-0.03537370163794129	-0.1200071262356109
-0.01859212553188441	-0.01352787682536009	0.00205878808432612	-0.1140268371399179
-0.02515469433126756	-0.01847879566157773	-0.001979135701227193	-0.04644848388394036
-0.0421521827304415	-0.037243837092483	-0.04042323442495195	-0.07468470174529616
-0.03955058811166507	-0.05177918805135951	-0.06292786681843193	-0.09858516452165883
-0.01609169034809826	-0.04964467865909035	-0.06392175734004393	-0.03325368117419302
0.01319458819098356	0.01555268143824259	-0.04357454197346577	-0.01453066779426826
0.01584188874598927	0.09511490767277933	-0.01112963226277854	0.02352716038850668
0.008381486706047703	0.05074501973225092	0.03053044257010153	-0.00296821004950502
0.01577113639301307	0.002565121853582349	0.01787345456342948	0.007434089581413494
0.0101551085559739	-0.03153344774717858	0.02982192752125231	0.02201753184468581
0.007268402658572345	-0.04187141797046641	0.04534988876182025	0.01326374004185295
0.02063612352315373	-0.04359648530611174	-0.01122161241452083	0.007715632679505471
0.009078869413390377	-0.0497487672103188	0.002977821978454183	0.02027947608270641
0.002802281772687675	-0.03520496380281761	-0.005937134633370974	0.01783419577809349
0.02640886985386177	0.047829448174665	0.01566361630337902	0.03181351472716827
0.03051359767360906	0.0600969789445811	-0.02994148522309656	0.03298933209667929
0.02671030177083161	0.03777764230004438	0.05021823419641116	0.0247088495412621
-0.001151020894661833	0.007333827904718614	0.07295571501374477	0.0005656808791484275
-0.00889260782242899	0.05871087231519476	0.1047532047089226	-0.008025372407911664
0.008782903536752953	0.06697957603014575	0.0974529972524322	-0.01198071816558419
0.004135905023079275	0.02264601168117638	0.04947412256856933	-0.01502583672824463
-0.003700973970454411	0.000731053291962453	0.01369340096710514	0.03076968366679742
-0.005152217162248136	-0.009298833080915616	-0.05127174328046237	0.1373197554208515
-0.01492759734397206	-0.02193076752495726	-0.08601486677547793	0.09471503644795931
-0.03070122686019701	-0.03298607475870906	-0.04745629306849619	0.08714176404398162
-0.03340721770230096	-0.04408501475000944	0.02694797208582642	0.05908233253407553
-0.02858721767995978	-0.0417245428468527	0.02182001940606649	0.04455164458839512
-0.01674744763523102	-0.03564367541794968	0.0439175585496766	0.03540144033744373
-0.01183577247253699	0.003434830233984209	-0.04139635164051781	0.02571336934896996
-0.02640485308789612	-0.01763045249077764	-0.1066367343934987	-0.01344285268626896
-0.03121881054703045	0.00479310566874964	-0.08524493056673998	-0.02410056302027055
-0.007389019936373325	0.01536575123103396	-0.07908932482322292	-0.07117536922648562
0.004980444289140512	0.01678999849149528	-0.04876838528757237	-0.08277690352336055
0.006835263105393218	-0.01484802348428237	0.1174548389702394	-0.03567381996442907
-0.009076218141595246	-0.05124671193052496	0.1100267432685024	0.01501876660811523
-0.01415578596359158	-0.0594269141461891	0.008395158294358102	0.07214063912416793
-0.007187170893714109	-0.04226904115874199	-0.06046957557614371	0.03112575200132569
0.006995356889054845	-0.01438344488067447	0.02201309818690451	0.0365835708262882
-0.05184597421353006	0.06171254589589545	0.08710317891168859	-0.001324370828434728
-0.04123622170208278	0.04819990881957329	0.0747787547599424	-0.04112732030277022
-0.02140484432077616	0.04626683218499899	0.1443843612797619	-0.03645755046881987
-0.005376746140993016	0.05991014922349631	0.1360695761999366	-0.02863435839004391
-0.02260716430683241	0.02088328313736629	0.08161165698731959	-0.04370971157941297
-0.0180603985466261	-0.02328957154838181	-0.008971757519452502	-0.03744910447198605
0.0007191151803933538	-0.03844080451969431	-0.0008258755759987441	0.009265099474009893
-0.001031199024788103	-0.02863558284362004	-0.06566274232256182	0.03402000847698476
0.003245440139800226	-0.0471653966544363	-0.1032713211481484	-0.009009385103882857
0.006685013519378028	-0.0246904688678048	-0.07571712882299206	-0.01949935634073515
0.0002285678357339387	0.01823492184202001	-0.0663896326127562	-0.01596788132975959
0.0002950619834619588	0.02754725056345293	-0.07209239193239754	0.05642637849115289
0.02194394836855074	0.02331234826961017	-0.1003480181670929	0.07358894312701342
0.01860988776116747	0.004958565446030676	-0.1064918473655036	0.03683927962495021
0.01507870521014713	0.01265390152006574	-0.05251501482161786	0.01428926741456727
0.03770640164462272	0.03640562658394864	0.008085618023168917	0.005739311000359312
0.04465116996984683	0.01405027732742129	0.003883794827684459	-0.005584879466001828
0.03855252454714292	0.005968156115808321	0.01860775057725608	-0.03494382362494809
0.03095686356721378	0.01789109021908059	0.001897297860909065	-0.03507630113151667
0.04236156548596768	0.04706958383219319	-0.00977641804954513	-0.0269630371762781
0.03326472926647529	0.02856356423985233	0.03573855095840831	-0.04239231098414101
0.01178543089823644	0.001303240739336015	0.05397126110365177	-0.09431773358228764
0.02434268457306806	0.009201652039104006	0.01323033630132933	-0.0911483457543398
0.01981755134541158	-0.004074125795340945	-0.05327201366486436	-0.1010071961708449
0.01732782935854126	-0.01651164726291572	-0.0928044575238206	-0.07762043063439703
0.0008513484059344532	-0.01432508056845687	-0.03998258309920687	-0.05396069169439138
-0.01551341926989583	-0.01086493750017407	0.02668833918524457	-0.03672648537756495
-0.02182062443862674	-0.01574885575078851	-0.004785523390994277	-0.01361565820529669
-0.009825304255584172	-0.01032299864406857	0.0150848150029905	-0.02635605051652739
-0.02613384442245504	-0.04738779944578649	0.125559714932792	-0.03022034899338863
-0.01235528408154942	-0.04699855076745296	0.1309900934564585	-0.009171903769112297
0.002659050540424166	-0.02683519782463313	0.05323068572195313	0.009201416696608178
0.00260642136681595	-0.0418695118399728	-0.02448796109331377	0.01466191456329452
0.01999452898189425	-0.04123055385434563	-0.03625548647152978	0.01009576563879246
0.04041149913769265	0.03798344886958335	-0.08026511306852992	-0.009915306166512339
0.02951256372702534	0.0215272696897037	-0.08737881550359165	-0.01755843355554202
0.02955813773545953	0.03821379412596735	0.006949087973534701	-0.006012297091795516
0.01292448449423458	0.03147374929158162	0.07802423544369697	0.03887035601226215
-0.01535420471886357	0.001143115245323251	0.03335235609101685	0.04023469494262945
0.001953969907868459	0.03877870387996706	0.03551596949765197	0.070349105718292
0.01650717899822078	0.02930027123481011	0.04594072064711864	0.1003315657513355
0.02217904874757306	0.03958104933043559	0.01415407503415368	0.01764069008345963
-0.006725598319381574	0.01749218192593817	-0.03182134711626734	0.0489932057030207
-0.02419410640722502	0.0003523813587258814	-0.05751896232518672	0.04208845177092035
-0.01086498485290568	-0.04459264808022611	-0.0411568960470784	0.03410670831395211
-0.02443534996140088	-0.0331238510270262	-0.02457579372809691	0.02774051702076554
-0.01786253578500171	0.06207920874860337	-0.03489578974192587	0.04347206187108304
-0.05888892988642785	0.06522803517451625	-0.03789211031093797	0.04406856061296188
-0.08975932377015797	-0.07765135607479862	-0.04100616170523353	0.03962685296263833
-0.05550911950409049	-0.07960275012242413	-0.0100822646452916	0.03986358861091194
-0.03696524008292166	-0.05894161272390857	0.02229040990064321	0.02455755899984978
-0.03243995728613881	-0.03950818112081109	0.05181010700050902	0.01470025533485016
-0.02494640101265059	-0.02397793558557524	0.05250579060948926	0.01008833377666766
-0.03217377992802554	0.03196183924410222	0.002253156312397363	-0.01227175076511888
-0.03189155248038664	0.08489205207744789	0.01373534288205578	-0.066802899279963
-0.01776819951453045	0.06556001713348783	0.02628391792882225	-0.09480245637609136
-0.01727627965967314	0.0004567986321057265	0.02201571612283156	-0.08842654357466852
-0.01713926699286422	-0.02076134278674077	-0.003369371495943145	-0.06917585426147763
-0.002260374145422139	-0.02592295576825774	-0.07410070480529389	-0.02845184914321383
0.01483993836416426	-0.02768146345710245	-0.08927823625344601	0.02949663019546862
0.01029465508058078	-0.04952057763416873	-0.09809363690854876	0.07711572113507054
0.004635619891144583	-0.06531216062497223	-0.01679258977114416	0.08859660662352799
0.00824548386912646	-0.06223340590925584	0.1591816804828705	0.07027218935183659
0.03277106093826642	-0.04619615093155098	0.1004804720437529	0.03635241930335533
0.04043788930535928	-0.0106675702041943	0.05952196209318942	0.06953350605468402
0.03451060121717536	0.004299318808338745	0.0592448572616717	0.06752633223414957
0.0260770064323924	0.03895397219617978	0.01371001907591743	0.02907439280099171
0.03365348319156787	0.0394027806110736	0.03987211521831438	-0.01591544937135805
0.01376495904316465	0.06696221155707036	-0.01057979746003393	-0.03482881585307478
0.01723273350581112	0.04014134533286641	-0.0237442532342576	-0.02956310930429823
0.04140856485892082	0.04089628911903035	-0.04199515290631314	-0.02401586029753306
0.02229566648937375	0.04541425632433536	-0.03724831560566477	-0.0313976324923899
0.001850175910455768	0.02835265949400995	-0.02188836557281212	-0.05016733827612061
0.005919237666101813	0.01185929751296525	-0.01640230243318911	-0.04155411996402177
0.0009087046494921161	0.01345738071272476	0.02906643020062523	-0.02469954603101837
-0.01624111029848816	0.01444502549511689	0.02623366268310144	0.02154340980636513
-0.01046551256876963	-0.05938813878132039	-0.02272019737929781	0.0778666619696298
-0.01352903424802156	-0.06660448442736587	-0.07062891495184798	0.06034731471499333
-0.0251957597874156	-0.05806471270864069	-0.04134455957084502	-0.02725419895538192
-0.02872550404079294	-0.03056988511251255	0.03870245972667188	-0.08479836124249494
0.01458640678646185	0.03381683805135007	0.05178975305990171	-0.1284081094249258
0.04577201585179989	0.10727350889189	0.04073541691394537	-0.08398781326993726
0.03801407710459126	0.02936199231301037	0.05016551625424374	-0.0482107387241985
0.02631698219666341	-0.01665928658945948	0.07360870116519315	-0.03751576631759377
0.03719664680306071	-0.01437352812643116	0.08001076278695098	-0.006919831015709726
0.04155732136555943	0.03282923153390811	-0.06190487539215219	0.01804469576741651
0.04185657372969132	0.04714383055312479	-0.09642235880235488	0.005960532993580656
0.005527371791512966	0.04205772436181522	-0.04411411324144258	0.01978189107946886
-0.02955761037136634	0.03636356100593849	0.01343722279302969	0.07828293619199836
-0.05358010018518031	0.01675620120247808	-0.0212477600837286	0.06143466462660047
-0.03956864294633149	-0.01807450784755555	-0.06853288610061489	-0.01070880812439442
-0.02698324554514841	-0.03377182132147424	-0.07121395124407193	-0.02291173608815716
-0.0009253153826304867	-0.02543018716146413	-0.01613332060638541	-0.006060862921390911
0.01357838467174821	-0.002707305736607915	-0.03135200798692733	0.008681913902612744
-0.02759831443006844	-0.003725610132793762	-0.01645345744389738	0.006144560440999525
-0.0260591191886247	-0.02497643506616859	0.02224791184111281	-0.03833020719255037
0.01760421178662006	-0.03135184723233012	0.05007996158815006	-0.03615179322221904
0.05603730748110868	-0.05837970441120091	0.05833982322980037	-0.0576315761466645
0.0428870577860858	-0.07515480722198289	0.01881237066851019	-0.06655365465921464
0.009315593973109651	-0.06336935991385356	-0.02637737127334889	-0.0501697830030691
0.01351736480237691	-0.04987920834453865	0.01198866519333091	-0.01081053917752512
0.02377735415746127	0.0003477426094557273	0.01491713590437863	0.0735791824712701
0.01929451164431967	0.01490790613656396	0.01022453888729461	0.06389280458904568
-0.02177518403261489	0.04416119748828439	-0.006008807109130487	0.03215393473086104
-0.03557438553754992	0.08174338741057532	-0.01429688340328221	0.05978297877691262
-0.05808606207115245	0.05849246731714292	-0.04723312847689026	0.03777721925587306
-0.05849792848962374	0.07717115411454725	-0.06883648782643648	-0.00672590919364788
-0.04351699456786066	0.07456007043539102	-0.05067614475094238	-0.01546767880125038
-0.02355498953271578	0.05686918760291777	-0.01124764084596399	-0.01036519945703967
-0.02199510777077239	0.04522023224771966	0.08360028907951621	-0.02996927531082703
-0.01598805547070438	0.01248563689030882	0.07829771463554508	0.01101355322189345
-0.01188343721889305	-0.05637626509726673	0.05133853165099347	-0.005485905766924586
0.005289760592725909	-0.05994511144378503	0.002373901839406596	-0.02340182929345612
0.01748628554091645	-0.003368122716161799	0.03233957944503515	-0.04259089195578347
0.02958994467350282	0.02363966478975969	0.009239300990824949	0.05154697971231406
0.004021930333158912	0.01347803825568944	0.002202603050419998	0.1225870654196151
0.008675805436508446	-0.00555762886280614	-0.008859156339595295	0.09613751925283234
0.0215253335800625	-0.02236173360838668	-0.01173656437476501	0.1225727641649979
0.01684963755033761	-0.02652894145388785	-0.01979311786372104	0.07989323457797734
0.02144940142452322	-0.02896504695702982	-0.02180618586884143	0.07033063802373163
0.03073353102991394	-0.03258439833295153	-0.05798196193548736	0.01628846120337197
0.03658814554424555	-0.02032195212366774	-0.09782618772221253	-0.03461760291610389
-0.002722527964034323	0.004670254141491454	-0.1008983054708749	-0.08040407455015305
0.004599671201611887	-0.00522372279481139	0.003865143889826825	-0.1124844388992284
0.004632035368138981	-0.02483184130481415	0.05376737521524821	-0.09203660481133737
-0.01034724056319427	-0.01380618155450113	0.03402423636433923	-0.09292439007887709
-0.0002410538008875283	0.004072892251313185	0.04397860961619761	-0.07304716078140409
-0.0005114410653186614	-0.0158484180206588	0.01982540565069519	-0.02948333549000943
-0.004950412017080153	-0.0204352060576562	-0.04884092385514367	0.0008151110911042043
-0.02114862321706611	-0.02980494706323327	-0.1112420230395231	-0.001407320928897887
-0.0254440526789854	-0.02827183177821206	-0.07140140719901257	-0.02548159640991273
-0.02381065072861046	-0.01040983519120341	0.06462129895295314	-0.02171003924142045
-0.01070068788928225	-0.01500898370625828	0.1613100169571389	-0.024876327383244
-0.0219211813421741	-0.01210647541218579	0.1640362906253425	-0.01038280749285271
-0.02049687310589295	-0.01302010651367841	0.06976145431556205	-0.01351045316310199
-0.004549101771490314	-0.02093286673103643	0.03437767607627267	-0.01205550706575589
0.007203828190548218	-0.01043496491031031	0.01634742610356401	-0.02279596558206364
0.02805662939748154	-0.01708583971891934	0.01836535575988266	-0.05030542055716615
0.01758883308870321	-0.02695358357080745	0.06676796764674962	0.004288290770122865
0.00223257347019129	-0.01255249183509631	-0.004946497762343663	0.1125197914634696
-0.009012246689756979	0.002689108461003064	-0.04008539893317357	0.05223467418547379
0.001446396225368175	0.01554999941636389	-0.046474540129698	0.01807626864403617
-0.003348558907360005	0.004628665018743663	-0.04427049175094071	0.04888961195940652
0.002569749936205502	0.0008779460038086399	-0.01348314956839157	0.04057667088140472
-0.009860842160927915	-0.04239875633926796	-0.04879398363921547	0.0005246250677227041
-0.0241111568335144	-0.04146734639064307	-0.02525184649742115	-0.008682276216027126
-0.03377940105968088	-0.03584530017557031	0.02014575606190661	0.02150091942866677
-0.05775111780690392	-0.02024864040725039	0.01728155482308678	0.01562148708653502
-0.0175719446466143	0.02462310463900484	-0.07795731498441145	0.01743237481912779
0.02209512683436816	0.06205167733726894	-0.05712186271809218	0.05827961971679894
0.02881976191462494	0.06455579007053383	-0.046217332807564	0.0174321275971498
0.005378853323042339	0.02508914779846836	-0.03887382849274986	-0.01341904691044449
-0.01019618937140935	0.02501781727796122	0.02931383015447446	-0.0006913182834561772
0.004226598522207086	0.01401440315565625	0.02450861556472553	0.002377501660477152
0.03020362977745489	0.08620476345125555	0.02497244569226495	-0.02905661384484953
0.04507811475170518	0.08259547759669734	-0.002696737217465798	-0.03493372916768455
0.05047312786919433	0.04711937246845289	0.008107526161952218	-0.01947995031930832
0.02818299643229556	0.0498906826376139	0.002065567814940788	-0.01828294386209596
0.0107240989972917	0.04183787550499085	-0.01442655771658791	0.03724471213256213
0.0119976509268964	0.04023206691334875	0.05208350441860301	0.04777865756296043
0.0038019984761754	0.02817929980859728	0.005305833967981009	0.01794192077648318
-0.006150431605404431	0.009391893499895261	0.01490556416571543	0.01135917512723051
-0.02358635805429448	-0.01203111317641256	0.01585685744837649	0.01302591755780168
-0.03690705827698119	-0.04234802876011672	-0.04817469195180109	0.03351772224985046
-0.03852188555338158	-0.06808763823109641	-0.07097821262808779	0.05708784630266844
-0.04308668988759862	-0.06177869218365046	-0.06539719028944015	0.005115851683153419
-0.03038985876992792	-0.05420924135980563	-0.008041143265019259	-0.02814623983660276
-0.01713263972388667	-0.04282487893415515	0.08318047158522419	-0.02032349612241036
-0.003974515527334316	-0.01442379370634561	0.08910660958264838	-0.02926843559969062
0.01007548687481932	0.02444817716934608	0.04942665458617193	-0.06086209658826642
0.009013375102821184	0.02921644366287155	0.01307392772854342	-0.05306333994441647
0.01452791113231193	0.05160039682117578	0.01155513136750103	-0.01699111269354019
-0.00670549982649105	0.05730503143313207	0.03407551477057574	-0.03220479351133432
-0.003353361924840148	0.05361504028751118	-0.01011482480546468	-0.02422206609009943
0.02240842543873825	0.03257860760627846	-0.008980748704008879	-0.01152507061971574
0.03632308320576993	0.03018518735359246	-0.005278777674649213	-0.01372325222558133
0.03707249474932443	0.002607252289385686	-0.01323371610540651	0.009139757199658772
0.02562434714201741	-0.03182582779243733	-0.007102780992951825	0.005709760202977779
0.02507712204912965	-0.03197094805182546	-0.01786357470499216	0.002415923603612019
0.0143717879232638	-0.0430986190182214	-0.08054231203712953	-0.003070410482686404
0.01160925270540556	-0.0473470566129793	-0.06759844561393243	0.004922644146682894
0.01216628844355833	-0.04869459359789485	-0.01867479676278096	0.02679348245902419
0.02506666469580866	-0.05404351480194206	0.003041753574760659	-0.01261424291340165
0.02571300736610806	-0.04905684568537518	0.014878229430268	-0.05499880393358211
-0.005211298808703296	-0.05096884770486273	-0.04267174579381988	-0.04823897405188657
-0.01597399408219497	-0.04215045605737314	-0.05568959724368156	-0.08043046455951168
-0.003492777753770767	-0.002042054569638412	0.06009243479819275	-0.06962317680549032
-0.009231885149691739	0.02680839382260758	0.1157927228239489	0.004356312722009269
-0.01337119611733146	0.03818779000569329	0.01638765324499224	0.1567242089757168
-0.01531869445892088	0.0715544639974091	-0.05334802270456442	0.1685981509394426
-0.02653624911444397	0.0355439435293038	-0.07862125378649239	0.04628489200422561
-0.01867279182311544	0.003738594202682285	-0.05596632574415468	0.0226982298842542
-0.003945762344080275	-0.0464320795470512	-0.04305117118340302	0.02493177091439649
0.009785664578934008	-0.04307831229700481	-0.02165740235315888	-0.02298398391865597
0.009146899570627571	-0.03702359486127264	0.007763294397414641	-0.09424540385807971
0.004157642745889285	-0.04525614788571063	0.04828130502718543	-0.09235379749939691
-0.003986038142882346	-0.01898016064313325	0.05890644145609698	-0.02841835808516294
0.00195265854656148	0.0587662023925061	0.07875322867376411	0.003227596571667886
0.01632613505454864	0.03926984657741214	0.01746443801885331	0.01374096244521274
0.02231740354392866	0.01126196524256223	0.008204923205387744	0.01825011224708354
0.02871133408638951	-0.008677284546597948	0.01862292719652485	0.01622089393388525
0.01717295560863391	-0.004572350747177639	0.06567043388715238	0.01262139119645464
0.007628574112936622	0.001864176694898749	0.04670808761189409	0.006387249858802115
-0.005954286204633731	0.04032328881529074	0.01741162340003936	-0.01982966940665631
-0.01667385888450177	0.03728474148360737	0.01333526207584985	-0.03985245528285054
-0.02170056509523453	0.006050871712712953	-0.02307538669650775	-0.02586153140881645
-0.04294875505391423	-0.00718520854361168	-0.02112059159785158	-0.01594053525773675
-0.06094457565577056	-0.006984220212775601	-0.02522269213854324	-0.01542837036203408
-0.07652751297271491	-0.02744501078788597	0.007484826821077475	0.01952588342641009
-0.03287782064877075	-0.02893569021073719	0.02070336391824294	0.01795943411514525
0.02181939855127944	-0.01801232554439165	0.03285910172400439	0.006194582714387393
0.02528988184618056	-0.02315635143761745	-0.03472744730657269	-0.01484232925345659
0.02919520182334942	-0.01897278508068929	-0.06468999109173466	0.0007470623344579895
0.03517600286921798	-0.02144097799885089	-0.06499461401797527	-0.01191616264031775
0.03392064739868118	0.01031056170415838	-0.05687603949684732	-0.04037769901614096
0.03412782381165878	0.05667813456526118	-0.04544655327165438	-0.03462342265482332
0.02529391613548428	0.04338675715353006	-0.06496177246092809	0.05145822176419307
-0.009344495479713506	0.04103458425338557	0.002186861494394156	0.08412073244840608
-0.04843794637746186	0.01875686287273163	0.09080185652200271	0.03961998110695323
-0.07120261103024493	-0.002526087305653226	0.05276399834076908	0.03040130738344335
-0.06734914551152897	0.002244218355048402	-0.02477769407713472	0.04945034905250052
-0.06131656650794642	-0.01371799922988988	0.03054598003893038	0.04683342339617808
-0.02924100304319412	0.001339702169708982	0.1713899277804431	0.02410157994057355
-0.007267590392152082	0.02361222140548808	0.1885063020078137	0.03606994741929033
-0.01189808145240048	-0.002487293762614616	0.09313114542062942	0.08458974654727343
-0.006528638775601172	-0.0183660665623351	-0.001882245900645079	0.06628222154994094
0.002313442928231658	-0.01057085423717079	-0.02850053128117529	0.03861723051440765
0.003443369151463957	0.02133996274146464	-0.02698307279080957	-0.008181654982471687
0.002617786737482998	0.03785591364981016	-0.05214435355028263	-0.0526303925146086
0.006341972043115056	0.003893247921230694	-0.08527572895544497	-0.08102755890590879
-0.001308714602599656	-0.003942190457046776	-0.04533233005379768	-0.07714209578030476
0.005136515489364103	-0.006122416025970144	-0.01956591280553233	-0.03806399910262103
0.005519438044081907	-0.00616117707356506	0.001522886388428327	-0.0251569502362338
0.0210078866603878	-0.01086451140685589	0.03335119728122516	-0.0279172695302754
0.03209831685691611	-0.02046072636844841	0.03549330440863776	-0.03824243245922378
0.0165146737150195	-0.02117065465797771	-0.1003255596086117	-0.03664453246305525
0.02226729467921582	-0.01330233891622841	-0.07142011365858668	-0.05590983985807365
0.016753105131598	-0.03083359615824672	-0.03153874077847937	-0.04488356933253237
0.01946087327446212	-0.02567352680529437	0.09103541655288608	-0.01374136272076422
0.03822760255249361	-0.003284573580377854	0.004136201105472728	-0.005012053864650431
0.04880919106563143	0.05016907830058628	-0.07829320036832221	-0.01561325716417531
0.04662684574693134	0.03259261816275961	-0.05791852187954618	0.09223272025392307
0.03860728212872584	0.01905088975854506	-0.03897800729556194	0.1181195366746952
0.006917998665785516	-0.03692876878876451	-0.02144556452710628	0.03243764966446243
-0.008271087005679984	-0.04450125170188566	-0.0001108483398511541	-0.04186950718837684
-0.0105032321699061	-0.01552128606701669	-0.02179593133174934	-0.03111766474014864
-0.01643548226136908	0.04195886731402964	-0.04729300207646175	-0.01605960932919589
-0.004481394158717328	0.02419104919803628	-0.02067507501748283	-0.01123574583004546
-0.003305982593016427	0.01127571333032158	-0.01019961073513244	-0.02829891649574629
0.008854855375117373	0.03091138799446548	-0.006734804814319512	0.02269469333900793
0.04212500457026303	0.007941767083725057	-0.03099737727190036	0.1005132769146123
0.06583078612212272	-0.01812321956732041	-0.01754927414147192	0.02971997500552564
0.0558006008322723	-0.04735095042415371	0.02449192591998202	-0.03274340488220272
0.04433053593145941	-0.07228263255095313	0.0261325088714556	-0.004891935258345758
0.03116582095615512	-0.03787816473864632	0.006551031122658587	0.009812631546759404
0.03556741403431898	0.03952037849290059	0.01571604407188348	-0.02998450739956365
0.01937889982754106	0.03369133378697869	0.04851638433719135	-0.09026860650491329
-0.005704804304406046	0.04567338741426171	0.00776031701605137	-0.05778720539049535
-0.02764546358333023	0.04347749130861759	-0.03233004976034019	-0.03294758545439553
-0.06872486281837703	0.00673660806148628	-0.01768985763579617	0.01053376276661578
-0.08538553028544008	-0.004515433131811424	-0.01803215679405228	0.01838187552138467
-0.04902987626014202	-0.01433282226619506	0.02648239221468268	0.06945267894184101
-0.01303006919491931	-0.01438647030487111	-0.01752395722810386	0.07885336838210295
0.003578749550098583	-0.01839180211861966	-0.04130815614148217	0.040447371368751
-0.001358544356747851	-0.006372702786436866	0.1011701871584417	-0.02878109806541278
0.0008183390676818033	0.007313355142332048	0.1213546158351685	-0.01832672412436792
-0.02943864115641195	0.005046880222047495	0.05993415941154675	-0.00171803989844012
-0.0394103654500322	-0.001470754371450148	0.02237462836259528	-0.0283485878000581
-0.008105873269307284	0.01009602903685832	0.01634652400984867	-0.02938544153323022
-0.004040335864268455	0.01909790933890532	0.04461020276440159	-0.03337333641230539
-0.04299171143334354	0.01592529124440045	0.03184300019386872	-0.05273564601182919
-0.06945798898264613	0.005083799263372152	-0.0005470843615515686	0.02214640057847682
-0.06603603520303632	-0.01635700438512571	-0.003416215981816458	0.03583034366491356
-0.04224229345778439	-0.0142304152986575	-0.003904995760706167	0.0049081531748283
-0.01921079650909528	0.001579717236933709	-0.005276809880990966	0.01187144834309875
-0.02886235378105589	-0.02514312650090143	-0.01947349769400678	-0.0008970641911486478
-0.04158843661090728	-0.04332646013624204	-0.01560569189816165	-0.02195497122113529
-0.05055653302424901	-0.03994364464847102	-0.02115608124274686	-0.0257903181969587
-0.01995674961326351	-0.0149635996757176	-0.00750945717540332	-0.04127063478325382
0.01195293453008795	-0.02158956352833521	-0.02421778884041976	-0.03436509668544656
0.02481800318544031	-0.01019620162914627	-0.03014158203455939	-0.0172289147649081
