-0.005822393705938474	-0.01587519773649989	0.02717127587413417	-0.005285587338027344
-0.02905030880776978	-0.02114769953652413	0.01079357221883962	-0.006983248476531777
-0.008242631319581958	-0.02171739704392964	0.0004866375318523495	-0.02107479646984625
0.01022598029034058	-0.001943509360889006	-0.01524302093274117	0.07150796949258993
0.01903676112828432	0.006199669890540688	-0.0226313347840682	0.03340318838756448
0.005198873878933489	0.02052991699338207	-0.02182869629165269	-0.02246715090512984
0.006567839529696451	0.02357547440795151	-0.03779794239417209	-0.01425259485345672
0.01392467516550313	-0.001071370402719072	-0.05924432923764253	-0.009809942964542972
0.01177162716518058	-0.02424765049137035	-0.05677061465205086	-0.01291146315044418
0.01055808669886802	-0.02515895735044314	-0.03601306887931995	-0.005925098373869047
0.007903758639383125	-0.04280982087476386	-0.01337427669750357	-0.01905714933649299
0.001432504495606188	-0.04032667945648809	-0.009156164304778412	-0.03077280678335955
0.00365825682589607	-0.03816623990227779	-0.004986960636641969	-0.01686427267473335
-0.0121271927554896	0.01208990464716505	0.005636115051767774	0.005446234494627901
0.0005163935743337533	0.0525248241710498	-0.006393305635334756	0.01591171201234988
0.01121284379603099	0.08136346985537708	-0.009451780243060825	0.01065507155993141
0.01885959374081499	0.08266876888294512	0.007681865653803977	-0.02290105586934899
0.01163326432059644	0.07435851831845514	-0.004520892729472508	-0.04134803151006561
-0.006156606136553064	0.06790406844718722	-0.02314322385953752	-0.02897324662859225
-0.02001516878346536	0.05646264966413709	-0.02227865490988694	-0.01555022323299047
-0.01168209096074967	0.03695924817096888	-0.01475442986957794	0.005606723802556547
-0.003409211711740353	0.006120082310832799	0.03242852490591366	0.0134625410838123
-0.00564767196991081	-0.02835347040426705	0.04296691117199829	0.001102026219836743
0.001333471706669798	-0.0469801291556191	0.02333143945346352	0.02591826058076734
0.00298043339355912	-0.05638757948012621	0.02278805351649355	0.06162310570805071
-0.007660292783112176	-0.04143350983748648	0.02378955258122066	0.0001550634391785419
-0.004814049967105565	-0.03165812713260559	-0.01326132291586408	-0.0272285766813937
-0.001524052718457429	-0.02199786950332468	-0.004626156213913819	0.007443112202342984
-0.003511413676275645	0.00952262678562805	0.01728222293317357	0.001018557099511182
-0.00995974262739642	0.04468595650890054	-0.002179439632218476	-0.007125630983917653
0.01143779034991197	0.02968544672570967	0.01108662843736964	-0.003433868018746046
0.01787905601362501	0.01684468031770878	0.03706843663499431	-0.01665417741996665
0.01966476037219392	0.0282077690146098	0.02886769445761097	-0.02535004975612374
0.01926968565763616	0.03376111260410095	0.02348137184744464	-0.008818963392376028
0.009672584745428512	0.01714253912855563	0.03357726304184363	0.003412094130539328
0.005943413185481754	0.0003281098130146332	0.03944102950333826	0.02327433850384245
0.01076911552977899	-0.01361787233632323	0.02198648864050618	0.02473579843043971
0.007888782590154686	-0.01853589668194316	0.003915654595139423	0.01312418034045939
0.006813622456331798	-0.02594742205130864	-0.0002393330801612827	0.001426810272608925
0.01093344289614516	-0.02471419258852456	0.00402500690888978	0.04194220996594376
0.01877514104694726	-0.008488752738333874	0.01554906042038405	0.03478287230550532
0.01094829462214029	0.0008649647763524066	-0.01037134466420311	0.01808035147707594
-0.02432327799860223	0.002788385390380223	-0.02060298611719089	0.01637489496683901
-0.02665561853483215	-0.001419477431208591	-0.003987517786022426	0.03892026218714352
-0.01021802598196948	-0.001987844208284482	-0.01988046495463744	0.04607313164946737
-0.04266248960640869	-0.02644774557861686	-0.02826336583933543	0.009166542199267654
-0.02839934755575624	-0.03010886852348601	-0.03756207502339514	-0.03609871645343214
-0.02475018069453033	-0.0359194560509081	-0.02133422992038669	-0.03237369177444769
-0.04263068474942266	-0.04257919799686269	-0.004944729257362608	0.07879006050383791
-0.05502511916091375	-0.03906597802304979	0.001173881176439687	0.08895441187667572
-0.04998594095893321	-0.0294836800930386	-0.006175693022977895	0.06997677130196953
-0.01546746233436406	-0.0188648686862726	0.009187509833087155	0.04998768525628851
0.002822188953421723	-0.03320214286405163	0.009431058119155874	0.001246495146575974
0.02874373135933288	-0.01807887210132213	0.01641640038659853	-0.09283296200078139
0.0444709237976102	0.03880395603441664	0.01112014635566813	-0.1326794782066684
0.05084200463544682	0.05826006614493842	0.001949451478591177	-0.08423374837041689
0.04264856468345484	0.07140791452656456	-0.01866219435693137	-0.01897925291474117
0.009249899780041912	0.06880678499794962	-0.02470649120267778	0.001878224102744065
-0.001556465713816064	0.07970476109519291	-0.008256029085828646	-0.0002456200180602284
-0.03115567019441571	0.05643909191581804	0.00273146617279328	-0.005016689287361707
-0.04940107879637294	0.0153123963223965	0.01053655323347772	0.01289211429441011
-0.0588129450304905	0.005112766801468927	0.004180304080319205	-0.009521815805067561
-0.04337702267710614	-0.009546452859817879	-0.009990534756365587	-0.02739670433723248
-0.01288950615130256	-0.02041978163677725	-0.02056175430485987	-0.02438938057801971
0.02100442550189687	-0.0208894181996332	-0.01248031684051919	-0.02907776317813821
0.002118803759909686	-0.02336209282136335	-0.003623515497480549	-0.02260177146608028
-0.007136009953285802	-0.02480830595568952	-0.01089685095096874	-0.03997281540277692
0.00661920723057076	-0.02454730936443125	-0.01371060357832169	-0.03815073202275057
0.01350360969696775	-0.02335445409551545	-0.00427710349143669	-0.0252085635529545
0.01277240584866632	-0.02574682427270345	0.008955063887894061	-0.008972279985893332
0.01926384537849321	-0.03445748641390575	0.02476442367845803	-0.01322854728602448
0.01651540573252719	-0.03829574867306836	-0.01664979765407821	0.0007017088070693341
0.01103946727293034	-0.05098929766797129	-0.02819848519957792	0.05394855782539874
0.006132494085693228	-0.05357055385311544	-0.01104558708935609	0.06361567020131471
0.008712830330349699	-0.03990546518343203	0.006695617911459168	0.04124249158026708
0.01039184066109402	-0.01306993811137486	0.02025483649618061	0.0007534137565826273
-0.007234541937607523	0.005867369523078752	0.009642746381274674	-0.02089791886489096
-0.01053173131545963	-0.02025675117789443	-0.003471209492362184	-0.01535637711174593
-0.005230193548928284	-0.02003527556881043	-0.009536993585064471	-0.001450170120399984
-0.001721901228965803	0.01516256960156903	-0.005590087168256716	0.07184425008812959
-0.004972151835208907	0.05335833853279417	-0.002243476290488538	0.1331581575658565
0.01049035546025666	0.007244842649633857	-0.004345825697047738	0.05847498105879578
0.01975311398552869	-0.01716899202851145	-0.0008797709264561637	0.01166965196761948
0.02009184130999578	-0.005805763751721232	0.02511771550000396	0.01596868946143368
0.01755443821672939	0.03374461925424348	0.03183926597748181	-0.00155653541074069
0.01924198361065757	0.06648832292742447	0.03328051089684318	-0.008370601580893661
0.0157419082811685	0.04757246908001671	0.01269654334000675	-0.02354925216630756
0.02389000605532806	0.05612331131466733	-0.01033565079642816	-0.06038083672159057
0.02944690683039651	0.08599292329981342	-0.02284213556075826	-0.06405543462831714
0.02696177922260726	0.09873740013288333	-0.02524061483546233	-0.04446999784259935
0.0290884455565083	0.0763194200252615	-0.008510589053790008	-0.03663770053646839
0.02891621663413148	0.06204095048867971	-0.009615599929440744	-0.01854884803580385
0.01916145775920492	0.02078844097794186	-0.01771821495814154	1.849550035942533e-05
-0.0001112493787626053	-0.009047141062046541	-0.00982238182491885	0.01520987022953345
-0.008914743320636707	-0.02927819072772643	0.03537109674791096	0.04220798635501875
0.0009101434381200373	-0.02093534428501964	0.01017496464893286	0.02659651224211522
0.008291899492657668	-0.01483785755646654	-0.02141973208149546	-0.001743440947649113
0.00939726688141174	-0.01016353221119256	-0.02073556222846732	-0.009515777729175546
-0.00239552749118494	-0.01591795299805025	0.004029962635145961	-0.03481069087986437
0.0001251322559403615	-0.02288976239175972	0.001932921696366944	-0.03293152242086655
-0.0009903262042526976	-0.0300182547610423	0.01212963946274164	-0.01026501722145538
0.001767525428678257	-0.04210110660806773	0.01824948095505753	0.01751926548355964
0.00354811193031027	-0.05111820022831357	0.02295060246243044	0.04191819305406743
0.00639604205956711	-0.05553098385605122	0.03138081631949674	0.04887182461645925
0.005038890295060833	-0.05024241880393045	0.01360302504435817	0.02620273444596474
-0.01577398453751601	-0.02768152672303448	0.01848225163247681	0.02988666497494985
-0.02456471928518368	-0.007259141988484622	0.005037659219100253	0.02042953813057311
-0.009788529938151949	0.01870425963268275	0.01522897687721673	-0.009861891415188307
-0.006750125302998821	0.02428359292997196	0.002088318511784357	-0.04481408011301288
-0.005549595057455396	0.0194014268305179	-0.03247196148345054	-0.0522906506206267
-0.01040154356782111	0.009918029552239421	-0.02717338344752419	-0.01552102351585121
-0.0100455145279283	-0.004976571853356745	-0.01547209289774584	0.004270769046400101
0.0001186538570267843	-0.004128657571544818	-0.0132177758341689	-0.02681399193398628
0.001750973191063861	-0.0006378275756765987	-0.01554950449331088	-0.01356153294843463
0.003791286334361243	0.003097902040721183	-0.02511512611084493	0.06836407548221349
0.006438071618987567	-0.002105538837470565	-0.007713665240310611	0.004210062682198307
-0.01525776783676014	-0.03064360494470969	0.0116311382982885	0.007806114425291838
-0.03794645113653746	-0.02127581257190957	0.01521047238576532	0.05737066319336423
-0.02500867818818441	-0.003870514332824291	0.02544241929776568	0.1035309459399399
-0.01116533245376758	-0.00827413633910703	0.01330674925727381	0.08756737927832879
-0.0180207478513892	-0.01397796838683708	0.001241627508731575	0.04556044847884438
-0.02814793297756624	-0.02500308883482333	-0.004830341501615501	-0.04708294169694518
-0.02630173811301723	-0.03279950280298674	-0.007817696166148828	-0.0705633220552372
-0.004226196005460915	-0.02504457394994779	-0.01386247142471304	-0.05632954152296943
0.001410177668970821	-0.03769454239072733	-0.007042716547358249	-0.07304226050237748
-0.01398117642206142	-0.04685063378197606	0.002859508653940469	-0.07746255507122445
-0.03494757855606059	-0.05721460314804717	0.01090939625776815	-0.06431835340221811
-0.01766378608852842	-0.02906939152015804	0.01164591584435637	-0.1027305694189939
-0.0141576741922298	0.01893035453184119	0.01629256513856565	-0.1322618640315672
-0.01726725434466516	0.05088772723483548	0.002896409168122158	-0.08467546089072014
-0.01096694865455449	0.01543807305119542	0.008569998246618579	-0.03854754704512863
-0.00421088110514888	0.008733881293629529	0.01914200012093139	0.021355873301653
-0.004112215038954024	0.006912039438755286	0.01022478374950134	0.02853256705148369
-0.023126474353952	0.01676523794763312	-0.001481245120942143	0.03551561256279365
-0.01682674195346758	0.02335853082125091	-0.01974014302654916	-0.004432066395022711
-0.02425949180323001	0.03255375384249412	-0.03673491258056182	-0.01426344293107206
-0.0224519880354078	0.05216280903383846	-0.04356314150003143	-0.003697648484276029
-0.01124783708609236	0.05479331934510415	-0.02716502114294695	0.02507291571639781
-0.001939677928470025	0.05303949525595059	0.00284231659726857	0.03006449396117783
-0.001137947038148902	0.01055505501096658	0.00392311819127343	0.0171728789597756
0.008474917813910852	0.001205134219630244	-0.01148101675867477	0.02435916724179601
0.01882441200744491	0.009205740863888817	-0.008392114540108698	0.0388575922914078
0.02934986939896187	0.02117472999382335	0.02464602162086996	0.04724841734510395
0.03022334416482253	0.03560857345432865	0.00888076466073299	0.02788378053597597
0.0327718047642537	0.03626929594487741	-0.02538286479384015	0.02288735908113376
0.03371711779175975	0.03209469626154788	-0.03539981854900941	0.04357718519638032
0.02810821386550763	0.03353271375955999	-0.0403436599013858	0.06097828090756088
0.02087577170466725	0.01797063922571498	-0.02619816015834012	0.04294846178737146
0.02378232437031621	0.005078765349948993	-0.01998558452547568	0.02424198793888453
0.02587630334176964	-0.01261184161848217	0.05253858763875844	0.04906871044009269
0.02256858232853038	-0.02110043574267909	0.08974437245158502	0.03507457098268873
0.0253701167053243	-0.01965120889366069	0.06021149675863404	0.003835613300105971
0.01833505160682943	-0.0275700115859355	0.02795695109747945	-0.01183343836150391
0.00973489276241281	-0.02516797462768107	0.02224855758844277	-0.01414226249017631
0.01167066252284476	-0.008998967390501045	0.005976785248647147	-0.04034566383507394
0.01631123813669281	0.02514699363126427	0.008927966413640633	-0.02763645526340209
0.009905018688457511	0.0380084167794079	0.02546384488874401	0.05602510420400492
0.002230232847002819	0.008657841356345258	-0.01592073702217199	-0.005590912401594848
0.006436957714130891	-0.01295513349672805	-0.0497833973991401	-0.05997386755876237
0.001702979711444648	-0.01700152340188033	-0.0449490447044434	-0.04217498021385647
-0.00505310249466754	-0.02212187776424057	-0.02414361676098068	-0.04100067488367755
-0.0151887539425772	-0.02392914781452149	0.009705606171921261	-0.03578267457960301
-0.003378735716394199	-0.004334699958519676	0.02374682563818404	0.003453196639736066
0.01159241851068839	0.002198958391241713	0.02589244543641014	0.04645487136667949
0.01276370116875885	0.0008027276537658711	0.004918911728085819	0.07512211817367664
0.01504388141028168	0.00176196264387209	0.006068324202926268	0.08187818025401677
0.0074785030122857	0.005646310650055383	-0.005397382018396663	0.03188573878135245
-0.01040608167212982	-0.01472759050033884	-0.006580499169690613	0.008322950453274733
-0.02852101251069043	-0.03121358515695267	-0.01075203005340176	-0.02463925392701515
-0.03631951366181353	-0.02544262462375515	-0.007015952996063681	-0.03212447704306403
-0.02591826676063739	-0.01848011979491651	-0.0004730625689128053	-0.04600735488505006
-0.002067363241824752	-0.01685730232752974	-0.01781004542935109	-0.04155516419769651
-0.004188593626949551	-0.02405143379890204	0.01479573776454745	0.005111551782194728
0.002789570360130204	-0.03474650974144448	0.01082140637646047	0.04318771826571989
-0.01492796288212546	-0.007231843743202359	0.0004463973886692713	0.07969974103018161
-0.01387501430791049	-0.003618674961094509	-0.01568029338263045	0.002608392226931306
-0.000185433919267786	-0.00177086534879439	-0.03554808782975657	-0.007478578633605164
0.01596265901223723	0.002570955776958336	-0.03065470133094157	-0.0002596789588115937
0.00922640466621882	0.01193947379028452	0.008816206323708328	0.005578268934068293
-0.003302675205163481	0.0300753268975136	0.02256850403911792	0.02952876689958817
-0.01083359223067045	0.003317851745230002	0.02982686944173614	0.01090220044766983
-0.008202188888674978	-0.01105308001887484	0.02916188640450912	0.0001714314562379943
-0.01233623310892456	-0.002852732822873576	0.03326953620227659	-0.00528266010176694
-0.006238639407257145	0.002755938415051825	0.008139886084635376	0.02653329164719734
-0.01558012294808698	-0.0145550931874292	1.908680150076449e-05	0.03038040284356174
-0.01083645924588942	-0.002329815972695427	-0.003987435906670179	0.03530188675889353
0.005524592168189448	0.01165116608619125	-0.0007411654508609946	0.01576283051074429
-0.009633934719136998	0.006888660998262605	-0.008158617805161899	-0.02436090823333636
0.004068672581011462	-0.01203791761103691	-0.01134295740071311	-0.09217594334896485
0.01284214602984128	-0.02441197904293183	-0.02615710875930342	-0.1340979692360265
0.01139104203902813	-0.03550666502026802	-0.06096114250268875	-0.1424532497073377
0.007590662275493962	-0.01867568247577227	-0.03213847083377409	-0.07075010182857518
-0.02118051886053991	-0.03248578166978752	0.0108974492756367	-0.03215520535604732
-0.03195042173099715	-0.03619065041527488	0.02264071410583067	0.03118913755363984
-0.0322258372530758	-0.02613523072315353	0.03057572885311305	0.06407841163767188
-0.01557608344050677	0.007368765071720311	0.02205487403827987	0.04437802914785165
0.0004935446364019243	0.05999695213091341	0.01347385389972088	0.02245354437312348
0.00904485045742493	0.05948628452025862	0.01423505963394152	0.0301338681572588
0.0248468200939266	0.04055472355914792	0.009346266460939912	0.00458297033984703
0.04423771271511682	0.01914451087642415	-0.0169867169742604	-0.04186617724058447
0.04443945600331491	-0.009188725042629306	-0.02243444385000271	-0.09784142322351365
0.03489031220585681	-0.01276420725339738	-0.0173698527160919	-0.07518140592870408
0.03583214116846731	0.006958861497551006	-0.02538864202210022	-0.02483455981589141
0.02717503131043884	0.02823039494339478	0.001908114466736792	0.01161584012161353
0.009663299465418081	0.0133218462270072	0.01033939085199624	0.01703582007613322
0.003654138514904818	0.004970682169367335	-3.228199025238172e-05	0.02127247448045048
-0.005410859104220078	-0.01160414632056356	-0.01969562912102997	0.02141082109463434
-0.05045358153500554	-0.005546972499178868	-0.01240138323029162	0.01856816468677398
-0.05540861151481193	0.001840800083823831	-0.01054798431996513	0.02546800863125885
-0.02124256569415657	0.001812724344325454	-0.01522711247520195	0.02980629339158124
-0.01362558610832468	-0.01638608058240597	-0.01926838109896942	-0.006670692223598416
-0.02951437112127632	-0.03143279856088984	-0.02691827619093435	-0.01781603345234173
-0.05019229883790496	-0.03397914557031043	-0.004828302469017619	-0.02818349585363207
-0.02745777826988416	-0.01239040387923387	0.003506055645014321	-0.02832794146463068
0.01030167129834639	0.01069820786963015	0.03656863121993795	-0.01689202425948017
0.01919235937123013	0.003377522821090699	0.04936597131863173	0.01458471843438595
0.01924361075202491	-0.01556983974123889	0.0147076413997684	0.02352292271785811
0.03189628059792435	0.009467529981994651	-0.0130595996293119	0.01703780563734652
0.03622096350524841	0.0196606356199396	-0.009490494185823465	0.02163114620014664
0.02544044349781041	0.01638854616053462	0.009202216515759148	0.03204791099573837
0.02491286272283201	0.02208878664963251	0.04001032015781138	0.02773481173072263
0.02758254967715137	0.05267880675693912	0.02065804279849224	0.01787839047626118
0.02844905159137861	0.04440118460176307	0.02516626444660772	-0.01163819737584197
0.02033099162367922	0.01443458693083716	0.006289303750696612	-0.03794504619369374
0.01473942072805646	0.004974681585417561	-0.03272126949515254	-0.01482792088593712
0.002102289234270033	-0.008769972895247197	-0.04367262614767305	-0.005420339699449506
-0.007497983651691251	0.0009887280785793326	-0.03079030777241252	-0.005028465012908769
-0.01963748569528286	-0.001632410509280643	-0.0007464879555032935	-0.006462245612376986
-0.02987855066794651	-0.005438354065729309	0.03814008172243124	0.005838648214320726
0.03007103545338094	-0.009582775150033796	0.05718629173187743	0.01607258184016075
0.01709045816680382	-0.007201639335886622	0.07166013466514874	0.02788699476105997
0.007835974416770896	-0.01345083249579004	0.04029207235182522	0.03455554425454888
0.0102764391778382	0.01151913986410813	-0.01866301642168653	0.02807494971264441
0.003637185130002068	0.02638718336794123	-0.02105158123441712	0.01659886338050177
-0.004613091766723778	0.05436869314417556	-0.01162310496924869	0.001532511412129958
-0.01055122079920823	0.05074111386574635	0.005273936322338097	-0.02787873309318784
0.003996299147821719	0.04061624618031665	0.02768877889968431	-0.0556870324384559
-0.01866903861705782	0.03207844705578242	0.02256412858271119	-0.06860964024979671
-0.06682150265336805	0.02395220534962883	-0.01315690730962755	-0.09985275250630601
-0.06743826456639865	-0.002781861444134854	-0.01536395117387619	-0.06655128005047137
-0.03987246288606023	-0.0254296926291049	-0.01727566992414569	0.0834407221290325
-0.02492375809393702	-0.02782458020855062	-0.01954744406931181	0.2310957095581637
-0.009148768234867401	-0.03445061930792655	-0.0205391681398172	0.2015656272761761
-0.01651025691499819	-0.02834510650714986	-0.04669197575340794	0.09497054308675368
-0.03358653021397296	-0.02426332936734518	-0.04345984182768556	0.04507798299054832
-0.02234625440346477	-0.02654442163188921	-0.01743398282690102	0.03353977654401145
-0.01194545509531441	-0.02845581236769182	-0.01618061048322545	0.02035138523803694
-0.003003743361647308	-0.03043322848788171	-0.002020398863681491	-0.001698594818825195
0.001652291431039426	-0.02350155279092724	-0.002100369346104442	-0.03438066334296819
0.005722014208545533	-0.01927278990408493	-0.003127417439060491	-0.04436644207338831
0.01945963458164754	-0.002346596903854044	0.028022391110339	-0.04216087024333621
0.02238044253692522	-0.004820366132650678	0.01006644018110596	0.00628626187372879
0.02098617775825212	-0.01166362832308186	-0.008564438960008712	0.01080130323634676
0.01528331259260308	-0.01022228310974371	-0.01047771658830881	-0.008361081581093333
0.01180334409506938	-0.03352901005412656	-0.01201257223842339	-0.008659933088744165
0.0002916561582784263	-0.03712118903064091	-0.03108007799143752	-0.04751056677522358
0.007827464640432963	-0.03079254838799576	-0.01522527890767811	-0.08350463628947492
0.009266628796207366	-0.02246273735366241	0.01582871659537701	-0.01007592694071401
0.01035818761639127	-0.01232298877588051	0.03714667429738342	0.02780600163290735
0.01011829230542953	-0.005076072425854002	0.01721674809489529	-0.0051377846160172
0.01730878043076029	0.004507048369241245	-0.004174417341168551	-0.03903049459726639
0.02804770412841576	0.02496225443706514	0.001497637934075462	-0.03853881212220217
0.02515236139561327	0.009684766223838816	-0.01235199039729965	-0.04453596899343646
0.006942386869895513	-0.0006860458320328639	-0.01842525181820907	-0.05757815200280399
0.01233302702699278	0.007417926396283744	-0.01302055283842568	-0.04048387331734035
0.01893494990352937	0.003467313119706065	-0.0369736004221005	-0.003829932839644394
0.02277636540301907	0.007471511609995368	-0.006589082506888207	-0.02044480176291066
0.01887447844105665	0.006173343711905608	0.02860090086844159	-0.01771294814184755
0.0144817120184712	0.0102960917283405	0.03440161689349982	-0.01545650032079933
-0.003642330489381276	-0.003088352519646112	0.01656469817430518	-0.00590458384785318
-0.05064074807248585	-0.005179939815739961	0.0005193819411464216	0.02067319914457489
-0.02345552509823929	0.02997530935080177	-6.581415912473325e-05	0.01600389598551795
0.008849466280330259	0.03850230558171227	0.02645024770969831	-0.007799247808734516
0.02144340273474478	0.01612279557501013	0.04605651226201348	-0.04554762796039215
0.01511574093217452	0.008602310124552578	0.00366986161738787	-0.04885306659813782
-0.01709694720244716	0.01206177626929545	-0.0009171929033627993	-0.02833260822767147
0.002825490425502097	0.002093948661715893	-0.007342748425083428	-0.00836614737982205
0.01023841744055883	-0.004547521626448038	-0.01345681087734135	-0.01396356687178944
0.006900329401659733	-0.004692962624134784	-0.0115511169602299	-0.003928225220647381
-0.007846869887393051	-0.001111642410154544	0.005404120508804101	0.0331083542217484
0.00679853014844896	0.007112694643771409	0.0003415842106564781	0.07581592939766379
-0.01522641608055961	0.0008674615020698113	-0.003383951798126248	0.0774176191474243
-0.04051884034580203	-0.003284912218650894	-0.0002926924819135975	0.0647566080453181
-0.03938708916635181	0.006335516707066665	0.00267162220716649	0.03683942244082405
-0.01204657960536558	0.01928345459123193	0.01520790090303449	0.0007178042402272136
-0.04706008839496754	0.03485146181544362	0.007683580385586272	-0.08817139925626231
-0.0519225483996084	0.04414785354948027	0.01882695871416995	-0.1384652562822409
-0.02241169978198371	0.02013949695751385	0.008723401427883103	-0.1294219437493447
0.001124200620013469	-0.001357483354395829	-0.008571000092080396	-0.0699127817660011
0.01413930650885112	-0.0161605623856518	-0.0125617956873017	-0.002891315107310529
0.02236414438472854	-0.01409642306183927	-0.01307955334716111	0.07597184750195726
0.01504146660426986	-0.02448524845127309	-0.01127135444570982	0.07283594782040916
0.005574330687750835	-0.02581172003270597	-0.02927613947593255	0.1343986044840975
0.009722315979216564	0.01009398150890596	-0.02696117666238959	0.04765897233562973
0.02171116870650035	0.04683041395680495	-0.007666789005023784	0.009766880125156722
0.01484947680181135	0.03623358087183223	0.03564889368940612	0.05244071082014844
0.008679887498299317	0.02049087876481615	0.03052727756834826	0.05119267038900989
0.00913061364877025	0.003253022633888541	0.01271197573012858	0.006506459494230075
0.003782397828057125	-0.01307970382086425	0.01950438408956746	-0.009200455074684427
0.002081921559768991	-0.02515177413354651	0.00846044799030253	0.04018226515338258
-0.008102257523316734	-0.03678730116813075	-0.004758101997097264	0.03142428230613313
-0.006880075929451872	-0.04045202190680595	-0.01595944374897821	0.02013307944317351
0.007177629364992422	-0.03627157773218521	-0.01371726671487079	0.01859918793320485
0.01860355786965085	-0.0007205432550488446	-0.01546318513422046	-0.02312723198189394
-0.00182080355747627	0.02206652026913627	-0.001206096789831641	-0.04965580377097747
0.007620165757622363	0.005939193013717636	0.02108193407043289	-0.03936732594248232
0.003675871832198272	-0.02510776991169263	0.01689086749508645	-0.01950562396511615
0.001837300797516881	-0.04251699407944886	0.0005391741646589038	-0.009025847268494765
0.008930347368166249	-0.03181386891107112	-0.0009479387849982326	-0.006276968932606533
0.01003994199875918	-0.02497946969902518	0.001659701121577461	0.000158733390063538
0.01040155536913795	-0.01214148010219011	-0.004285445470195682	-0.005527548341774412
0.01822885825421751	0.03178906210833455	-0.001876311209239169	-0.0204852292184598
0.01897653923218065	0.06097880518590608	-0.007318189333953371	-0.02964913158137396
0.007347436240258191	0.02164675778554663	-0.03771492775933814	-0.02631576773161388
0.01254648207528316	-0.003007539916748687	-0.03657027665592058	-0.009564717567434815
0.01260183442706429	-0.03176261521008616	-0.01017797508502549	-0.009085285267066605
0.001962021650206657	-0.048714096386805	0.001022712079756304	0.01731283843441329
-0.02338642413650882	-0.04604460669713422	0.004569088566184144	0.1491000713659135
-0.03163391946061134	-0.03139772992725268	-0.01999419667178697	0.08588442707128446
-0.02266703026228551	-0.03599359262407312	-0.0622055400524761	0.009858938155793886
-0.03385678298354845	-0.01128213835675414	-0.07015958786736159	0.01659155401619298
-0.01296116062922893	0.03712068639475803	-0.00106325666733385	0.04297192249848915
0.02763510026325406	0.08942328096246013	0.06684625197263927	0.02090438604599788
0.03501445343325369	0.08589451814862499	0.06728420424803394	-0.01037358294214122
0.01084142312199682	0.05703179735489868	0.05856470911129091	-0.04678125078738803
0.007576392247724363	0.05920279426092295	0.05658131409733434	-0.1043087010941507
0.008946019700173252	0.0520778064020004	0.03658947093106854	-0.08276432911522519
-0.004664027862120945	0.02530744096193869	0.01367549952357366	-0.06112585952050988
-0.02407928259835416	0.001363285347539334	-0.02114167847284033	-0.03320538520826942
-0.05008479863591822	-0.005485045235984681	-0.03378698619740433	-0.02426110691113469
-0.02700733702572265	-0.01004296031106849	-0.02733416330094994	0.007970758270557694
-0.006185615023811265	-0.01245960480732975	-0.01342361960241936	0.02526156723102774
-0.003304127055798424	-0.02183933951709199	-0.001182000978956807	0.01894094013726428
-0.001495562144692333	-0.03431654820122507	0.01779366654597584	0.005104495172216451
-0.01749059027881247	-0.04378601443720134	0.01414613842753865	-0.0006639965919713496
-0.01486284904589368	-0.03775301490344674	-0.02340799507741749	0.005515921232134094
0.000696899656398554	-0.04560382341858332	-0.02884700748561561	0.003972284125482868
0.004681416765153883	-0.04859571804477808	-0.02566499303170593	-0.0219250391528505
-0.002073994285248045	-0.05565192029264947	-0.01536831944561146	-0.02508627962306313
-0.0009195421659327962	-0.04697936153522928	0.009824682960652477	-0.02043582112023676
0.005698186837787207	-0.01396148809526259	0.026090205264537	-0.02554540333180167
-0.001267163696695703	-0.007958696222197416	0.006673080951021232	-0.03260376134990717
0.002706848629304703	-0.001782766156360455	0.01557464374818265	-0.020113354746613
0.006288914669063015	0.01375249465878524	0.01523230836194219	0.02846529994549283
0.01616989737983716	0.02890567080302548	0.007980544482722188	0.0627769265611561
0.01306464514115312	0.04242825327646223	-0.002051221628866931	0.03132467738689669
0.007641521376864872	0.04546661280610435	-0.00436022895027106	-0.00445295323375954
0.005093198612636703	0.01053228730639189	0.003498756673093567	-0.01010398937506237
0.00902385328964659	-0.02944934162329702	-0.001626412687940725	0.00339971412214905
0.01816466979335322	-0.0250942648121628	0.01314685521363125	0.033132974433772
0.01790960194871911	0.01119084410579764	0.00853668857851328	0.01733125614040107
0.02044389130167032	0.06383890121815092	0.012251435746386	-0.009036388228616309
0.01020294806527906	0.050268454473695	-0.002462957012813856	-0.04933965742115128
-0.02801148272970754	0.004964641692166788	-0.007402852675773649	-0.05381418613565894
-0.03684394925367839	-0.0138928276183121	-0.001145078932256352	-0.03726270245027177
-0.03058659501912115	-0.02021582683431892	-0.0001948900254910077	-0.03134870422529394
-0.03763791353680718	-0.02350309924079729	-0.004605327259106078	0.0009080344214495511
-0.01229503911729234	-0.0129326278664498	-0.01626012783209486	0.08718436920869113
-0.01048876443111325	0.001372980919693492	-0.01606447770770146	0.02317520181073236
-0.007757628708341947	-0.007472447516982682	-0.005629109164969022	0.03865394883686367
0.01619297284943513	-0.0375121042617708	-0.001896654283616023	0.03130106928391645
0.01900420211999819	-0.03729848711701349	-0.02232172737903965	-0.009469985995633359
0.02480936587537519	-0.008018413013558871	-0.02482672976670191	0.002950047293420745
0.02618486692487254	0.008690262024175792	-0.02645087370344596	0.0158289425246419
0.03268603639127884	0.02895650181828361	0.01526055759732718	0.1369486244348143
0.03357041956897999	0.07748457507468344	0.03465070209142663	0.1104840131474147
0.01033782355817311	0.09874426351014108	0.007227563553007983	0.03475645155555235
-0.02596838841753627	0.06580243425932397	-0.006197682656021369	0.03785101750238135
-0.01961701694187625	0.01734576918742419	-0.009734805888390066	-0.007478840462193336
-0.002635394986366463	0.003823936660319276	-0.02616807572987986	-0.0580500333037046
0.01467476262460169	-0.005890550198788891	-0.01255809960221013	-0.03946143132753609
0.008926160001267589	-0.01675565952910228	0.008356322841614821	-0.02245132233258786
0.006277205625229679	-0.02425055896858179	0.006294732416817416	-0.02234987506278943
0.001486913005272512	-0.0334206468087803	0.04054039752580772	-0.02910484951272124
0.005498548688475653	-0.03572095846090802	0.03442346431934878	-0.01684038910399655
0.01391125164388968	-0.03145759653979441	0.011923731305666	-0.008221418520930689
0.02583345936458214	-0.02959405120178665	0.006680766943847325	-0.01242425151678745
0.02956467791157321	0.002157490335666649	-0.002404263430730726	-0.01286270698393598
0.01952466021399362	-0.004287834272873392	-0.007213355942583434	-0.0139835605630869
-0.009070786644591777	-0.02572459059438072	-0.01233845708178311	-0.02088442899939875
-0.03365831104387342	-0.02699470600248653	-0.02266669046655518	-0.01290580748212906
-0.02214069018223341	-0.006449738712401738	-0.01852954053962635	0.006046995364348065
-0.02692001891428554	0.01805042912637742	0.01333033562228238	-0.1039920742457765
-0.05654623787578664	0.005854773467296778	8.881625796108763e-05	-0.08495023780736373
-0.04844669066360895	-9.818978633724623e-05	0.006133345545758565	-0.05330601732559184
-0.0260828817342575	0.003150629661569352	0.003144313141327862	-0.02689176959203534
-0.01393252333172436	0.007480605170699367	-0.00834319593975618	0.0121859703257622
0.01372316339011377	-0.007579544382678051	-0.01520905369174507	0.1385527485936671
0.006796599824727322	-0.01266844458592658	-0.01017728812677571	0.1242529543382572
0.006388528460254448	-0.01258992656573636	-0.002380586579914689	0.04141343963556098
0.003059970416443141	-0.002502016129670873	0.001847193687643094	0.004154318995837758
0.005699962282122793	0.008178984818293614	0.01829074689669022	-0.04987615962659633
0.01212645243735548	0.03025692484888258	0.03077625913345968	-0.05735789439630986
0.01167469601813834	0.01930588354491373	0.02325382112496287	-0.04389520102876059
0.007693633609157721	-0.01372510152738778	0.01212954594370732	-0.01973419834094109
0.0128218134243907	-0.0182368373314957	0.01226356647252611	-0.01808258556669025
0.009412290642793543	0.00188805584848452	0.0256699345447062	-0.01563255472097492
0.01547892299124939	0.02376738930664105	0.02666317375775369	-0.01389965947706217
0.01154302152925761	-5.847481858112854e-05	0.01570595344684936	-0.01998244233598219
0.00309900886880879	-0.01266659669119584	-0.002804868383317574	-0.03277048001608722
-0.003598819211633343	0.02092371640767652	-0.008167768945028558	-0.01543069278827117
-0.003121868269948555	0.03727539378056736	-0.02597030822824186	-0.0135331180590096
0.006198365827480472	0.00681108800215992	-0.03539397881852711	-0.00650725875028677
0.01584852371500174	-0.0004785849484483387	-0.04130670290652208	0.005775522927394054
0.009414987644406079	-0.005831517158343905	-0.02688094323079308	0.0997943924123405
-0.002934531796581576	-0.01957927788882427	-0.02370353720809994	0.1062964124219271
-0.006027356183612189	-0.03337820120685162	-0.01408696222891888	0.03277410058092567
-0.003429919050788527	-0.04151880604471951	0.001241500626520173	0.00583982050702263
-0.0008269206842869822	-0.03415330415653473	0.008648771928006685	-0.002628638089684832
0.0004027749943714331	0.00942926689611372	0.01528892683190951	-0.01188656524766432
0.0004531267922641556	0.02202420706408904	0.01495358287444175	-0.01590949012176273
-0.002085181203350989	0.005758356896170198	0.02113951882535448	-0.01441729985971165
0.00220747179214278	-0.003476863450405538	-0.009559518001300003	0.0429324198275682
0.003478053197264853	-0.005911799237777782	-0.01104525628101913	0.04169761600717642
0.0005597386679370767	-0.009927342344412379	-0.007419424057445748	0.03598408247510026
0.004311598984046414	0.006359459546262001	-0.004845593463594026	0.003117698689338338
0.001319360309690001	0.02495347215464213	-0.003897590217328831	0.01834651391316906
-0.01959900841755483	0.05313523265968463	0.01284083655385616	-0.06837360511884848
-0.02392204751236242	0.08085032349759541	0.03120721086661968	-0.08557549456050892
-0.01229360589915369	0.06112678470527846	0.03312188311051217	-0.03096512883211331
-0.01583943467054154	0.01702962584897794	0.006296804769292277	0.009569401502072273
-0.03604613506830338	-0.02204040535415468	-0.01771805753743673	-0.038532066051506
-0.03671931171924131	-0.03240070042272584	-0.006843673071319307	-0.04079987208069682
-0.006383960500175704	-0.02955558674302221	0.009724429472442286	-0.03270378053672898
0.00289478417746533	-0.0252938896143697	0.02068176044745875	0.0302400653127698
0.005208029504928866	0.005546331762224561	-0.02426169105573715	0.007877880713900305
0.01044993205645484	0.01627287091356451	-0.05295017210622233	0.005619785328219347
0.007487313694989687	0.009856777905917385	-0.06394769900993047	0.02538599901420576
0.01340320692108969	0.02899880179997268	-0.04014121430875438	0.0499744226764764
0.01266851880805195	0.01681357240067924	-0.03441936003625239	0.06271456283595608
0.03118596791548912	0.0003206945944329885	0.01964372813179789	0.0741873296127832
0.04170763242144641	-0.01656496194716697	0.03594797845882232	0.05345782206639761
0.03122941835641429	-0.02239801232788979	0.02511576914439641	0.013112530043973
0.02126973886685329	-0.01913264479590803	0.03164138928627284	-0.009535684327427529
0.01708851273763462	-0.003936961313869624	0.03355965425862707	-0.02341650423675438
0.01367262068376779	0.01335970959865768	0.02851481665201541	-0.02533609478138551
0.009276059832823254	0.005772926401458337	0.02282180752548906	-0.02515994396332869
0.005122293217328101	0.00492970252444285	0.01332229158932172	-0.03521814490827063
-0.00175698273996648	-0.003395819522458703	0.009421049469070818	-0.02718666426116783
-0.02734543664461415	-0.02042150238358804	0.004757886691645096	-0.02194469464403313
-0.03182715665861831	-0.03333141410189501	0.00201377480675232	-0.007943112253316328
-0.01612391364488997	-0.02649893861640579	0.006808127498708253	0.01477562476496932
-0.01061612858199787	-0.02667382210817071	0.002489498217639908	0.0237798880174568
-0.00134648594843416	-0.02557229220922459	0.01630659007363393	0.01904578755649598
0.005182072018142638	-0.01960051307603563	0.003864177905072315	0.01790200627358256
0.0005156726335752062	0.003624800597164001	-0.0175953223542267	-0.02022932044594834
0.003554794700605638	-0.004540523838985242	-0.01376061151061874	-0.0506523428097306
0.01713213974488667	-0.02782019330944106	-0.007084650574741623	-0.05560836616357152
0.008401787873306348	-0.02482224327263772	-0.004767319300707438	-0.03116174566890726
0.001078082507845899	-0.003662795564469947	-0.01576808772869474	-9.325364872813603e-05
0.005048507546833566	0.009409154914518273	-0.02516311435614689	0.02478332863305843
0.02383863878577734	0.03033395832264859	-0.03879796705737737	0.04976585271118265
0.02135069526838304	0.001794606357525042	-0.05039456826824178	0.04301411025253191
0.01167995450233075	-0.02670230976612453	-0.03640275190315506	0.005523467091736757
0.001831452702248147	-0.02653673875324425	0.01087373646977715	-0.03878716417810159
-0.02186919638332509	-0.01616048241997842	0.01652256057725433	-0.06468940980303167
-0.06074750233313887	-0.01357039692777196	0.003324221002879368	-0.05469279887474392
-0.06824070877015824	-0.003384317915946092	0.007901024150651668	-0.03861295343522815
-0.06720963929443742	0.026275234748024	0.005115430596998084	-0.0007270289543239552
-0.04906609189430942	0.05837171140602103	0.01118493804955774	0.02638356275161669
-0.02304225081443113	0.05920471220264378	0.006732533239864229	0.04353540270153171
0.006159655837234653	0.03422239567362799	0.03203779647750522	0.02107790624189547
0.009633780987487267	0.02240905007071991	0.03839230865292359	0.01832919596433591
0.01400742888005187	0.01124712506487732	0.0146503659309062	0.1297783977394675
0.01126001045452689	-0.01413123332949854	0.009532676498541809	0.08221105859734117
-0.01946325856247157	-0.02756171326514903	0.02100881674561506	-0.04105583235984531
-0.01234514662199201	-0.03276813778097605	0.01117856310147003	-0.06362834732168561
-0.0006701813860906459	-0.0005507837155861787	0.0007899528354624685	-0.05185443081526395
0.01182807478079249	0.03118523575054622	-0.01883808588854469	-0.04358766476784356
0.0242420857273579	0.03347353284537089	-0.02039924420247437	-0.03217155077294249
-0.0008538391689494327	0.002252483519990084	-0.03245715951399922	0.006461111211713136
-0.006062214674110458	-0.005516480416282222	-0.01151900617076291	-0.006096541259526004
0.02853740809879678	-0.002776392307508639	-0.006245989051144263	0.01620781437304589
0.05512831261751019	0.01139036507078601	-0.01580615818032847	0.08919353805466869
0.04207006753744164	0.00987023491566413	-0.03481560860363471	0.001175494171453536
0.02788428957797027	-0.003642190937287953	-0.02437027423248933	-0.04575114336482114
0.01464386875219319	-0.007644904310246845	-0.01431603138757693	-0.0001784035421142352
0.0143319227565396	-0.01450858050324863	0.002862660892170527	0.02883039139342405
0.004245295495440967	-0.03034585168283574	0.01815247000461456	0.003300200227188579
-0.02349169431344537	-0.04113191747052194	0.006004777650308604	-0.01417625117269783
-0.03748767240523676	-0.04493400296627606	0.002222874549452277	-0.0147973221479729
-0.03399519253890439	-0.03819740812684507	0.007411557140458431	-0.01947387398873618
-0.01930063843231456	-0.03906128297787853	0.02647672424464896	-0.01267632704244457
-0.002556682633719747	-0.03513831108614119	0.01797424379247908	0.00621786372593936
0.001067513030536838	0.002435187988870424	0.01214688840048934	0.08606202937885224
0.008775102976096084	0.06179311070796464	0.006947620261619721	0.0352784210293903
0.01299332321054832	0.06032854623696823	-0.0142378848140715	-0.02585349265489877
0.01947776372381376	0.04360293008019363	-0.03593512817680179	-0.02036752025976736
0.02443090786477671	0.04108264889348189	-0.01942313476641261	-0.01960890066121686
0.01297912045716306	0.03771299963733502	-0.004398976222138673	-0.020107553761636
-0.01883002973050453	0.01801978343538838	0.004032808893798434	-0.01452652351917524
-0.01343506713639801	0.002855683970371591	0.005612686770879412	0.003508444217294454
-0.0009327443576168358	0.002398224665854035	0.01204838540873734	0.02475794954227347
0.0105414589274785	-0.01224819625522381	0.01393317826014137	0.01241512363381309
0.01610427903667798	-0.007872964188374238	0.01144778438718155	0.002081847755654615
0.01618646451855154	-0.0175102397685455	0.008971406704819992	0.002043983474101888
0.01374917104233913	-0.02315377022176169	0.01673092714372664	0.001472017787587274
0.01078008152805067	-0.02239715172999319	0.02786832063037037	-0.000198330923082678
-0.00119467843005963	-0.01673867931288806	0.0282408956003899	-0.004789618068632737
-0.004897197544289931	-0.02757652177956004	0.01898593523607631	-0.005999095012491611
-0.001283018058006289	-0.01601430780373667	-0.003115805744363489	-0.00854531130165611
-0.00153897591818379	0.001130037574835927	-0.01788019935186728	-0.008213669986135621
-0.008984434006190695	0.0007513068765864892	-0.01960131965462886	-0.01453396771973667
-0.01332570974028083	0.005483881158073684	-0.0127401277160447	-0.01735483501984049
0.004487266248585617	0.02164502062740037	-0.01897929905333564	-0.01080166168985691
0.01617619072328643	0.05290735102066754	0.01801746689996983	-0.01491999047581894
0.01067554746655513	0.02530714586936482	0.02642072454494049	-0.004518374114313356
0.01507073710525786	0.01092354837134109	0.02593641070976631	0.0108849079599389
0.0122909703686907	0.01457068198780989	0.00972258592889871	-0.001195622358726311
0.004252109057963831	-0.007603254169626134	-0.02092165178116603	-0.009598706361615162
-0.001893160877536159	-0.008241218813705372	-0.03089593031908028	-0.005024285282353927
-0.004275495642020961	-0.006276167859312837	-0.0231609754157621	0.01157980752654265
0.007549227604908324	-0.003729220761677376	-0.01180621546892823	0.01851584540847851
-0.01320564463891457	0.01533626891726056	0.004962696086518657	-0.0008063086805381251
-0.02632048842812699	0.01096350428260854	0.02814128099384958	0.009104140889316513
-0.01798903117511399	-0.02279090994694272	0.02964816402748646	0.03062104537023586
-0.01111063600947129	-0.02140441446631941	0.01267274296687083	0.02007709486367199
-0.004149707012389976	-0.01922614441788786	0.000565369167064159	0.01088499794033058
-0.004464821259867561	-0.003087020111532147	-0.0092040807067191	-0.01035959451179787
0.00290164100848313	0.005030966972676026	-0.002099164429985905	-0.03846050536499169
-0.001828806324525622	-0.00119685390668523	0.004560827244783744	-0.03805446268654851
-0.005716652659493152	0.009893935862319583	0.01212481545358984	-0.01349064117122567
0.006945184790603842	0.04291636468746561	0.006508799325926933	0.01638840786608512
0.006301270613621571	0.003322464786477269	-0.001558741714315625	0.01765398567717615
0.005111166044655013	-0.0100261177510159	-0.01786592495778511	-0.0006273142188689536
0.000497573088380351	-0.004416378441623073	-0.02629595295150836	-0.02986007590740676
-0.003219755379770532	0.02370964532351241	-0.02225102628739394	-0.02540632061737837
0.008211384221578624	0.02773026307754185	-0.04708044380897451	-0.01337388891285088
0.0139053551326615	0.01821232691073467	-0.04481908249387426	0.0008461151875970377
0.02595786469979266	0.0027752981134015	-0.01652523108385909	0.0418073035525643
0.03796395732813773	0.004683068162092751	-0.01566563472775764	0.04727758507295332
0.02178597017845082	0.00556278044691825	0.03756716116808982	0.08107876336180697
0.003615096415747122	-0.02668486250769635	0.04920277455840694	0.07519286005891275
0.002604117631088292	-0.04238910319478457	0.04054782639323679	-0.01513743693847504
-0.006967278365696801	-0.04141350924655633	0.03195091756633137	-0.08789963393505269
-0.008676336235555842	-0.02589598128217352	0.01757563914802127	-0.03487755587191982
-0.01032675373566653	-0.006925716484511997	-0.01359812517887972	0.03057602113116844
-0.03140366110721426	-0.002408921330446809	-0.0342867440738717	-0.008621699055263386
-0.04595198966388545	-0.007076482147310424	-0.03957665831017582	-0.003906020622152874
-0.05113330854934472	-0.001374533904231769	-0.03272664028773298	0.01501441499000066
-0.05468329769767557	-0.002202159682559892	-0.001710591769373506	0.02259349335326163
-0.04720293293046448	-0.01206625988311364	0.002771471401095322	0.01495644931183621
-0.03376036631081698	-0.000715694976925457	0.006805476732586208	-0.02438326354433244
-0.01390710681154664	0.009868470832060876	0.007752622640350086	-0.04574761978701521
-0.003165227088381155	0.0006573222096254121	0.0002865452526768048	-0.06267653070761843
0.007094646858493913	0.0004123109010038798	-0.003676870015844387	-0.0587889773826016
0.01226953429882534	0.000854066963095708	0.003378318424260445	-0.04451466952993053
0.02168702408142973	-0.009777349970097467	0.01592868894432167	0.1230865027505795
0.01149902219447977	-0.01018881160009962	0.009164213574720619	0.1189063126005205
0.01624489311525958	-0.01374469423550157	0.001389058632357257	0.03211294351892779
0.02370464067937415	-0.01324048697892776	0.004875342849468894	0.01461666420307592
0.0300568772091869	-0.008685400989957908	-0.007536525221588477	0.009069396088146931
0.027042144419909	-0.009363940529248157	-0.01197374904838653	-0.009435627991091232
0.02764140248909545	-0.008741429921438745	-0.002564998489666873	0.001663616449225397
0.01525295245692864	-0.02747342212400456	0.01464379802972386	0.01966149384692771
-0.005224927292902424	-0.02896968441122449	0.02853529399958895	0.01346653521716202
-0.009192566043268919	-0.02344587425288199	0.002510908426967879	-0.08011784264005445
-0.03102823019704375	-0.02739522141269277	0.002663230603470756	-0.07819286629885212
-0.02144874083114625	0.05101443031227259	0.0003233258287864952	-0.05892135148392143
-0.01275049118948436	0.04899589424820792	-0.001787611065453142	-0.02903472160156314
-0.01102961299652726	0.05233846842315611	-0.001681242769654754	0.03970956454942778
-0.01470772861807546	0.05967906559858299	-0.009723883491198999	0.00425359316844506
-0.01705090871287447	0.03737177340239546	-0.01834808158817005	-0.0196112174453031
-0.01106660602185675	0.02316868262078616	-0.02654178373891394	-0.0239782676271945
-0.006417684052657539	0.01409021842299889	-0.02945924523105144	-0.01492803221059559
0.001628129432347881	0.01144133293183781	-0.001750803655061481	-0.01004991283884165
-0.006891027346834828	-0.01077116727021683	0.009877894382381854	-0.008763923255850389
-0.02424319417117753	-0.01838573539980385	0.02066589141641742	-0.01620857415746774
-0.003268276003276776	-0.004422635421303701	0.01627831588962884	-0.01345814330801449
0.01307937281879129	-0.0002370157580116673	0.02006007525264424	-8.993362273736969e-05
0.01561981945608628	-0.002647855857906571	0.009840912025789081	-0.0001779165647812639
0.004760118459413902	-0.01890168852470267	0.0007171454023790669	-0.006414613255436187
0.01209212173303987	-0.02191803139089437	-0.001268731036263056	0.001037618205233918
0.01244290822900132	-0.00852245011990261	-0.007489519670898967	0.01320513827887276
0.004340933089965071	-0.01053431073366183	-0.02506933949392243	0.002835956317228071
0.004485056546801029	-0.01483057022417947	0.01112078314031761	-0.0005981708006028187
0.01151763885576362	0.0003666378091483871	0.012653285892042	-0.008648125698147172
0.02267150633707673	0.01307814121534963	-0.0005688705009809128	-0.01678337481120811
0.0181168655008937	0.01625637614403386	0.00301581423135066	-0.0005574664249462082
0.01541493675931989	0.01494197384619258	0.009889556631939593	0.01128724081144661
0.01509894987653562	9.269697323916726e-05	0.009684213670565897	0.01721413197571244
0.00976170208901536	-0.01863564998738134	0.02560137308241309	0.03267307166424632
0.01328770524462243	-0.02278689049052265	0.02124449487147644	0.01963293651616422
0.02566283671628792	0.006113363258275475	0.004973853205751451	0.00959913423969738
0.02317614461633484	0.02338960249391508	-0.0165162975876995	0.004252298560880399
0.01861356594147981	0.02817476861093627	-0.03038222120998787	-0.01216184142654645
0.01540796751464555	0.01563782804647382	-0.01802598767358125	-0.002852656202255602
0.01952036588526623	-0.004658171876265139	-0.01499052524591247	0.02738000772213962
0.02505474385406876	-0.009677097460797052	-0.02440788557229027	-0.0002972876067496728
0.01659297486485777	0.006250740860703274	-0.03444070065051178	-0.03754420544712549
-0.003231650557157432	-0.009988061279254241	-0.03257232206933135	-0.0216031944198104
-0.01278479097224148	-0.01380470349254767	0.01238479515619003	0.02609563151611713
-0.009748134376137085	-0.01828926277699023	0.01628204399548743	0.02442712383798902
-0.005149194409231814	0.01268717713244484	0.002092211987592366	0.07745359597026466
0.003686596201554865	0.03038094046061753	0.002228609435978505	0.1222969963551988
0.002952023142742443	0.03293489323290327	0.003218133423416133	0.1045724150706542
-0.01121236789976273	0.01516927401607271	0.02698031293872939	0.05901385746188075
-0.03018675876295666	-0.008532202810716791	0.01283378725035105	0.05819278428456819
-0.006908349313670481	-0.008091730997270419	-0.0015921981164984	0.04174696334823438
0.0006332209250486879	0.001454084873769831	0.006645036005013288	0.01074738299751129
0.004635702354127975	-0.005143540300673433	0.01308536406376214	0.006206883276018091
-0.003933847028287187	-0.009065181416049325	0.01526170253560483	-0.05280425863960211
-0.003605663943345575	0.0009067356715980551	0.0198506500070049	-0.07711725864705855
0.005159808254496803	0.01798947214208978	0.02521619368640262	-0.06511059360568124
0.009713778931938949	0.04604422849064474	0.01139188334139768	-0.05601135847480741
-0.0001695541958938975	0.02834950475523226	0.002596939289757589	-0.02769507870603826
-0.008729330212708023	-0.003219765006579182	-0.003709381233515017	-0.03064949439055903
0.0002442643088026074	-0.02500137818585854	-0.01990510142168988	-0.0493266587614074
-0.006656991771954702	-0.02186323362412215	-0.02514606359243888	-0.04948245599620969
-0.003939662685571334	-0.02212780442915484	0.006371115314783071	-0.009832723273489611
-0.001447305051256725	-0.02984639819108559	0.009366536440054382	-0.003788786432112786
-0.02823507617961325	-0.03576566968730179	-0.00492632600389609	-0.00320127542800764
-0.04053153934903859	-0.03548726690353494	-0.0006849049647554217	-0.02411841700519189
-0.04492204891293703	-0.0409568049785819	-0.00105416229256703	-0.04304108165179781
-0.04720913286475178	-0.03913652814371259	0.004219552871095128	-0.03120131900073644
-0.03430960409490729	-0.0117556527029756	0.01260215807379144	-0.01797310021784216
-0.008614575989545237	0.01064770505577761	0.02117892583948591	0.004994192486638369
-0.001373716106878695	0.001193868566960004	0.001792967834228684	0.01045970413256373
0.0004048267383910986	-0.007626273014137719	-0.01773323733380351	0.005950845797907867
-0.01249130604342211	-0.009224043777365748	-0.01750921726886732	0.02844638391048294
-0.002733304924269913	0.002013197529731045	-0.0008904059095618247	0.04345163992363643
0.008518837938956103	0.001900392160521968	-0.04456826593959994	0.005829269402733307
0.007869977253735635	-0.01000062703728596	-0.03304154064567427	-0.008989782070136126
0.008097202017625055	-0.004059644566315069	-0.0135732026226229	-0.009933693755181376
0.00711327150081654	0.0162906704562556	0.01207121486034038	-0.01493465807908446
0.009561381233337092	-0.01744646173759482	0.009018641591512971	-0.01897771035376427
0.01601367166494163	-0.0443872836076294	0.01685593622465286	-0.006155311029146439
0.02490344848308706	-0.03411618219247405	0.008930649093539574	0.005503568658986854
0.0381893643516605	0.001980882412065899	-0.0008405127362616596	0.04261003153366159
0.03854812800802761	0.05634747724147426	0.0009423468230765392	0.0438819712359081
0.02365127397096914	0.1068743855565178	0.00321757641413408	0.02352624704128907
0.02866492605934027	0.08635212515819037	-0.00758011989716775	0.000660966093001616
0.02397929316125939	0.05170731018986995	-0.01398053190687505	-0.01533701992466194
0.0166657196114394	0.03218228486641857	-0.02690095973253255	-0.04330698255541698
-0.01443878658560394	0.004800146021990056	-0.03430211642746672	-0.04533043044343852
-0.005857702231178974	0.0008871842001933197	-0.02092812954399206	-0.02366914195961724
-0.02490163018574742	-0.00810348792306188	-0.002419874488207337	-0.007058557851506548
-0.03383135412190021	-0.01738154254318001	0.03283284930367011	0.02059576500044418
-0.02290084760957006	-0.02265178981026896	0.03559877028288611	-0.006077268936247746
-0.005921321754610801	-0.01599740715630727	0.01009670118715412	-0.003021001747142991
-0.009296004751753281	-0.003861020730199032	-0.01193670316601545	0.003192370334450156
-0.02986071763251203	-0.000332963170875691	-0.0387912988322808	-0.02965000456042453
-0.02055535206414751	-0.01206004402994047	-0.002319205262496203	-0.04055853427322555
-0.01364002702612852	-0.02447870123873504	0.0138614781214602	-0.01190154195248128
-0.0134231712316763	-0.02115558956358601	0.04793368119074005	-0.002696836282787188
-0.01971363937906664	0.00863058317051168	0.03149185075921818	-0.01208526468450644
-0.0165998398810036	0.01705505871074243	0.03459554073821265	-0.009945826208555306
-0.006839660241399618	-0.008312579860988004	0.04594929951229897	0.05636862926692288
-0.003021993825197794	-0.007237467795436946	0.04185631322915377	0.07405171521668395
0.007264561220944134	0.014302009026602	0.02980012739658218	0.01459203179830687
0.008583505495668827	0.0002112500519391711	0.01211827679257288	-0.02269298436171852
0.004150250327592164	-0.01301808113708019	-0.01191293234707844	-0.0563402306463619
0.01589587429786246	-0.0005240167711307098	-0.02155623927938891	-0.0571340677855021
0.023152656504466	0.003025719617075228	-0.01889089111450435	-0.0419753161948415
0.007563685989832012	-0.001926926793527226	-0.009965371740268365	0.03495933837687334
0.002409860636551199	0.0007459044631742778	-0.02439701009803986	0.0565478910717622
0.01049187892606824	0.002342947157108774	-0.03752919755019142	0.02372529638003164
0.01850308459804584	-0.003668088297583741	-0.03368257242688032	0.02193866609914853
0.02679427666430882	-0.01001710868703997	-0.02743513637066254	0.03469373324758226
0.0278493403768953	-0.01291675294721633	-0.008071213808036192	0.02441272813536495
0.03154340720226316	-0.02905998519543774	0.004939228192088578	0.01979071277453873
0.02574270535746371	-0.04471538772607535	0.02216223681551433	0.03786378568302631
0.01553364656511148	-0.05323403261377564	0.01375202680402082	0.03698425928075103
0.00512653609181748	-0.0385741721814797	-0.004423057224388682	0.01428481608557756
-0.007283518503209292	-0.004667821437477225	-0.01858099528728715	0.009810168370530361
-0.01988597443803993	-0.004144279374200915	-0.01030396162060846	-0.04428129916378058
-0.01346725500406834	0.004078048212222776	-0.01241697266516065	-0.05904056314664094
-0.01717558887688195	0.03416446304465026	-0.03544817899258963	-0.03686494362357957
-0.01829495982256969	0.03870530882454874	-0.02384173110780892	-0.01465381348837351
-0.04379443801911182	0.01873293595446495	0.0005322939746048041	-0.005408758153493789
-0.04335381742979613	-0.004253367818322398	0.006145531322582354	0.03797617435760008
-0.01040875970041693	0.0007263403577496099	-0.003922218439762844	0.1091578881618866
0.001905867714409503	-0.004708945997743474	-0.00236619875760438	0.03662557182892075
-0.002777324085455275	-0.02378837767276865	-0.001902794733851737	-0.01477775969099645
0.01227707124417173	8.180325483568231e-07	-0.01240625828633965	-0.00728443975331545
0.01502877344700671	0.03444729835310331	-0.002587384257562641	0.0101053717998897
0.002925644321364388	0.02696358821241144	0.02864890891972166	0.0151238462862548
0.01070651043201146	0.01376478045325132	0.01842692476244678	0.01566158767643364
0.009188802279379011	-0.0003731349137752115	0.01947288114635139	0.02163250070333122
0.01873065174560067	0.01440414911298163	0.03391539823325062	0.01263565091072189
0.02028673142477576	0.02037777556039	0.01783935759635288	0.007264906940724647
0.02733255063171683	0.006580516247423966	-0.00699368864228345	-0.003344561710130017
0.02532531127286055	0.0122155051965059	-0.01565672424813809	-0.03350239691980143
0.02108709295218926	0.02149610937707918	0.001660783411410243	-0.04380096217092833
0.02133762733795432	0.02735860006332825	0.008111659580145078	-0.06597276114550978
0.01541904909633445	0.01976094451676327	-0.008868045132981676	-0.02219661456487045
0.007709254024895371	0.02245216964185923	-0.003699844668756175	0.04148131122540182
-0.004406089138293164	0.02598895172775898	0.001680931435478382	0.009917697655139
-0.008359058480727367	0.008989537615296488	-0.005947420769184709	0.0659830123454227
-0.02679054345978471	0.001817879686702005	0.01987507983783354	0.03190788473324048
-0.04869421893521775	-0.01239306635218865	0.02051032794696274	-0.008820945320207286
-0.03678088367480001	-0.02038420876891832	0.001523172402957886	-0.0002590433864066782
-0.02070930313623485	-0.01018303900205604	0.002054566416441776	0.02915758316618876
-0.0003916869349248693	0.01133753839698026	-0.004503973480946265	0.003736671619244406
0.009566299847969259	0.04090661489889208	0.01636060393536034	-0.01724828403074245
-0.001841256959624942	0.006973677321852199	0.01014869000116122	-0.02273138348575282
0.01340701290446468	-0.02069610342170895	0.005371917657413133	-0.02125959260813475
0.01172585557862838	-0.0418307030753022	0.006490921764162181	-0.02155757581701763
0.008257157414997529	-0.04668553723216076	0.001774503175071505	-0.003625034272103861
0.003533244046483823	-0.0415964896425227	0.006916963616221784	0.006618178326099932
0.009487644756290835	-0.01951666047018762	-0.0008159793175639479	0.02648416406432464
0.008479981524737808	-0.0009469025166552933	-0.02491545919514618	0.03876230300286077
-0.003978319108795968	0.007120675677076296	-0.02270699881464194	0.01676876509515452
-0.02363848073355448	0.01431267003273645	-0.01381859900848918	-0.02196155021835494
-0.01687259799586923	0.002653586496429153	-0.02559959797526446	-0.06159500765214071
-0.02215169302062607	0.003421900684545652	-0.01029822379958433	-0.07033714877632816
-0.06280112841274794	-0.00748995563632331	-0.01212440054072062	-0.06650442569258892
-0.05348439861609117	-0.01768403427097886	-0.008906967752424335	-0.05013883894970192
-0.0196601791046025	-0.002155228385360532	-0.009353524504918984	-0.05364421615473784
-0.006679776439091922	0.001290693243335073	0.001246587770264647	-0.03964554009311798
-0.002565106033598704	0.001335140386018711	0.01658866473001635	-0.01186849530377355
-0.002717026888654472	0.002455771234768537	0.01668417408894294	-0.004163903949559123
0.00184665474257562	-0.0005777741555608304	0.002215016938326377	-0.008238591339845846
0.007628177497138036	-0.006026988728483684	-0.002432884731234318	0.02424605914501179
0.01104995908520455	-0.008507858634728291	-0.01406317061929824	0.02849816435423977
0.02756846615548647	0.01360555856755179	-0.01562866215047692	0.01377144761447756
0.03848163454995748	0.03242766780104942	0.00220912157530633	0.01032149653325943
0.03331387648855836	0.00440274680220081	0.01573059924203678	-0.001353161875030604
0.02955857521414993	-0.01781563868086428	0.0135777153040636	0.005236156349591533
0.01990559057176444	-0.01925686717247018	0.001135471038830908	-0.001831569922968207
0.008384191214126738	-0.01554234565657834	-0.001302397263191795	-0.01339944471518837
0.02266234715205776	-0.02679768825992457	-0.008129358970454954	-0.02395637029636225
0.03143349471598407	-0.0296230696386235	-0.0223705862551906	-0.01714146656171114
0.01238478304906525	-0.03363850720839913	-0.005174040118259737	0.006732999362379991
-0.03206065172121762	-0.025610672429211	-0.01074350749249118	0.07945035049253135
-0.05099667913294163	-0.003344789933732841	-0.0002151067364582603	0.09967327032453539
-0.03179537622465908	0.007687879967062028	0.008635603114543271	0.09010169821752075
-0.01056210623826239	0.03690267622847575	0.009266750416824983	0.04517344907610022
-0.001255406100178554	0.04491256130034484	0.03608729747758738	-0.05099002569021047
-0.002892964198272474	0.008918589399368791	0.07329776758999137	-0.09095018836959196
0.001751106691430334	-0.002259870167062903	0.04837630995524909	-0.112093802085383
0.001585768302829439	-0.001112991354870933	0.01865341537713009	-0.08819583712247316
0.006433821376653747	-0.0001948856761165636	0.0111937227232281	-0.06094235189679834
0.01362668250930246	0.008015671113196147	-0.01085122462137704	-0.01149687796516838
0.01316299941504342	0.007648435252774659	-0.02169880609646428	0.04647545641533415
0.009115139991716875	-0.01228564852676552	-0.02076949219832365	0.02622497051608302
0.006414197377889307	-0.01354617260491895	-0.009432673844843828	0.02105662039891387
0.004928642227503794	0.0154064395976036	-0.008345994066339173	0.04723834928252182
0.003639478942303349	0.02632667036089712	-0.007906872308100946	0.02775148653636336
0.006749861459082803	0.007880256475555299	0.007679527255602778	0.01294751159996851
0.004637888490058001	0.003415928723365975	0.007360550251185849	0.02540003287045337
0.003195062849005426	0.0007831811510528895	0.03350010092835462	0.03984176673096908
0.0004419154207771005	0.003142698887521543	0.02339581628896911	0.04080027539446847
-0.004652786846272502	0.02021877378507766	0.008068862820084292	0.04960723442704857
0.0002899478410831345	0.03076434203811371	-0.006872567714848525	0.03982525739800571
0.01122942371545559	0.01861965508894804	-0.01849327451187184	0.02080298136858317
0.01750530529913122	-0.00178835238160189	-0.02600467848972708	0.01672184847880404
0.0132313458188771	0.002123686939348054	-0.02047818950017689	0.01139307919494844
0.005944374484678563	0.03142813514515463	-0.01717277266856964	-0.006485099367868658
0.001391345942836366	0.02353620964556991	-0.00050781712349778	-0.04036877779173211
-0.007744486399359042	-0.02311629011968329	0.01717533607701866	-0.06482205060119255
0.004987559201068388	-0.04939512114411564	-0.000109171975653505	-0.05815540687713237
0.004475207697452535	-0.06024840928471689	-0.0295752056723231	-0.07121071344344031
0.009193089448230904	-0.05709984263360324	-0.04949682369843585	-0.08672633758556419
0.005344567916992482	-0.02963201086281583	-0.02551767451033169	-0.05931879557700933
0.001359449495766018	0.008439232142661448	-0.005644094003233441	-0.01375246840227603
-0.00148031855312243	0.03174526836266412	-0.004901304536731738	0.142608032738704
-0.01713277006340429	0.03929344742272555	-0.0303401002560857	0.08863646896675299
-0.01597330725946195	0.03009983008052225	-0.02723506401362435	0.1747916953363834
-0.01274088070551224	0.03293639230679786	-0.01463074344780646	0.1863798151061
-0.01316684759868678	0.03207551464590089	-0.006267994457571153	0.08601978905678963
-0.008316990347221819	0.01856715290060775	-0.02085252978129874	-0.04524204214110101
-0.008939259998744469	0.009385332202814688	-0.02929640736431667	-0.08944071950806888
-0.01024043168894886	-0.01105532126510752	0.008097192550194161	-0.05466059849909399
-0.01263522279316341	-0.01726139087384379	0.0486896157203421	-0.05797135861540204
-0.01327756947849357	-0.02229829166967245	0.05998651803218778	-0.05769574458766587
-0.01196963636763932	-0.05189890280663104	0.06684726549973155	-0.03516892472695105
-0.02157715127018847	-0.05274655328543596	0.02170069218375597	-0.02544361574337102
-0.01608492091456133	-0.04760292001841244	-0.01131723186342648	-0.02289380227674067
-0.005542478708011883	-0.02190281533065224	0.01074844657772842	0.000314881130059291
-0.0002360911865147738	-0.003716753618174588	-0.01934071619108764	-0.009485024705549421
-0.002095372486430533	-0.002598966340262367	-0.04723635976077985	0.002517860481106397
0.001448721748034251	0.0540531090841764	-0.03368214558346855	-0.001727526107076831
0.008443218250437928	0.08266332278023476	-0.02417410475658589	-0.002502352892753871
0.016361589336926	0.05670523050169682	-0.01949639122213674	-0.01690811071733227
0.01205928216819723	0.00632301698100628	-0.03321572859179721	-0.01319929207507045
0.006512365435912638	-0.0274769287125216	-0.01117916434961082	-0.01625685810649795
0.007385391104120159	-0.03393587277152301	0.007393346228251347	-0.002282596632768454
0.004920193793652693	-0.02144592533896227	0.01824313527978429	-0.001142336091894098
0.00628844371102762	0.0113247556835115	0.03235887600707878	0.01635708272907618
-0.01449408601638795	0.02552902069217641	0.02490978736343472	0.01862160085121803
0.0001708943481494263	0.003934890100933016	0.019325493772396	0.01102090611011213
0.008869044502337615	-0.01069439321272585	0.01229270978819038	-0.01940200018493814
0.02018703138718789	-0.03569929580201846	0.01584685945705158	-0.0280477697642766
0.01752519193438352	-0.03249673177592675	0.01117307514989901	-0.06056357030419422
0.005615771077258738	-0.01890568521702172	0.002527178063959983	-0.05683409692514713
0.01460355708836232	-0.006553509261488503	-0.01827606663204496	-0.006198688452774918
0.01241750595911463	0.002189869164693414	-0.01728341360245502	0.01521304170421312
-0.004533213583731242	0.02384629438408885	-0.0124411086250787	0.04651513818318583
-0.02625964126326204	0.03650410912352012	0.02737663789594514	0.05749658211357409
-0.007420565523735679	0.03829556359554623	0.03216551739086505	0.06934773498598648
-0.01361692276668026	0.04439229731348729	0.02474111977283555	0.05770450922100608
0.005427079543628714	0.02298418190313587	0.0202455557722915	-0.06723704573309078
0.03501941830552099	0.01847423082431515	0.01343076116976593	-0.09773917293741786
0.03716921444944443	0.0260476539005999	0.009340675385921218	-0.1043226756357099
0.01948275764330962	0.009275834723060669	0.008690245265223755	-0.08429581526614377
0.01805083444525685	0.003026208708421764	-0.001985766656091638	-0.07755658523075952
0.005630196672827428	0.001724267030084544	-0.01731203021974082	-0.002839148614024555
-0.02806059745203649	-0.01521912815927078	-0.01479584415732309	0.05566937414756562
-0.03993356059535946	-0.02530308479060817	-0.01540273086221156	0.0565712675739552
-0.03518386837585843	-0.02029862477542615	-0.01425032963883401	0.0559205952905437
-0.02708213079329766	-0.02634614205209753	-0.00409062845579712	0.06039841596221707
-0.03964119873683062	-0.03360910359221166	0.008165611625630146	0.005651288629331203
-0.05891590616831974	-0.02663874623257569	0.01884497160687855	0.002590278949087553
-0.04333152397828274	-0.0160816463149685	0.00634522387225756	0.01281278723725384
-0.01664244221895821	-0.02059741128680343	-0.00748173879214096	0.03060146943995411
-0.03346978170106042	-0.02603239929037025	-0.01258145821522534	0.04743208221028814
-0.0229015495993488	-0.02738251086969734	0.0112180089923614	0.07361351404178426
-0.00598192201889593	-0.02855112825584402	0.009205305782595281	0.06885113399147468
0.03213737774415903	-0.06167731907546288	-0.02407779290169512	0.02007838540220179
0.02123453158139671	-0.05228836562919493	-0.02883378912314745	-0.0274130897429047
0.01793196413780557	-0.023697594348685	-0.004971166859593917	-0.05016724513598658
0.03227816218135306	-0.01102651345300097	0.02649179850082095	-0.02907875194811832
0.04310469810274721	0.03130381048256956	0.03153003327304027	-0.05155218941467669
0.04217319991599321	0.04884500560254518	0.006845941026736241	-0.03460500065405633
0.03386892107160382	0.0511043874341607	0.00618375771697169	0.08001245644330528
0.0278646688221996	0.03922770430130469	-0.003133473200513323	0.04661919462540551
0.02792884580485318	0.05444060933277255	0.002074047714960328	0.02762121044774752
0.02937366910404383	0.07115237615056588	0.01331879343254251	0.02451445163882302
0.02081627184015826	0.05652026191361317	0.03581542453677026	0.03774770704185939
0.01645456797318506	0.04091939069608845	0.01313690220709799	0.01750377022529841
-0.002576018708584343	0.01361846834738247	-0.01363127137314956	-0.01091052097217384
-0.01176082450600948	-0.01231801848881306	-0.01552879261114238	-0.015720000602148
7.072373278704951e-05	-0.02275880894486418	-0.01885170484638353	-0.0107827072167377
0.005331011468505347	-0.01509235834650658	-0.0001673037200963873	-0.02603555326170984
-0.01763378603492764	-0.02677983586502181	0.01164936580315189	-0.07935109759201478
-0.05073800273260712	-0.04575978674200145	0.01144676237908689	-0.1002589104110144
-0.03387709396983997	-0.06181959783112494	0.00143478268050067	-0.07966876988379916
-0.004688946402791281	-0.06598227471485005	-0.005796464910745648	-0.05456810460399653
0.005333744605491292	-0.04880511140431654	-0.0005129422064993048	-0.03012426932726397
0.01269368175422674	-0.01858413267457782	-0.007198097636914925	0.06592683457693005
0.01444902900903418	0.02751358820023271	-0.02380288616403443	0.1039109825805701
0.02144555445418099	0.05710537016162676	-0.03799329714909029	0.01395649800234071
0.03314389357064632	0.05178836191056922	-0.01822930051355059	0.004598348601902771
0.04945243961733056	0.02678935879466948	0.006753532294386792	0.02138167412212471
0.05059938166808025	0.01149952118442876	0.01705734009937553	0.01610626778972612
0.03269777349893153	0.001486321075743399	0.00731878139152249	0.01362968682097078
0.008572285766405877	0.01060346621216844	0.0008749982892441723	0.02651186450276116
-0.03144202220379094	0.01948460804048319	-0.0009515009729489408	0.002855581158136235
-0.03115832834058497	0.007795856278259982	0.009953069028864187	0.0009083472256100825
-0.03862307709066583	0.002185593511322622	-0.004710523006149179	0.0001166908057226886
-0.06325443720368991	-0.0005642111078594395	0.002072938558304889	-0.01630057195468636
-0.08321722451564167	-0.01401070091320717	-0.001336285107377924	-0.02258701213690931
-0.07300346442031735	-0.03154224094549578	-0.003119939072218887	-0.0298525375062924
-0.07496028727734715	-0.03763277209145673	0.008785009253748992	-0.02865461377546993
-0.04200876260186159	-0.03906635199135646	0.01398400866629384	-0.03522950130857493
-0.006839064194880702	-0.03502731623636044	-0.008509162720431	0.01605000382965484
0.002854743066373084	-0.03030699231680674	-0.02087876966952093	0.02736221668518995
0.004758560868152976	-0.01596404739120028	-0.02360590939583977	0.06653236772400993
0.01227851803152209	0.03174007120589223	-0.02811674865365061	0.07142911530785352
0.01476778065391667	0.05178128380046623	-0.03518942205033119	0.04590060620114778
0.002478405214239694	0.05377765657066518	-0.01732736023211168	0.02734739727963195
0.009859051179705635	0.02450436606742047	0.002949480729608371	0.002807577106364024
0.009340466346183683	0.01204022293971675	0.008265566770367307	-0.02753949979329937
0.01244178529678341	0.006751060428204436	-0.00722386248851444	-0.06283023699024529
0.008452196723107385	0.002597584464733457	-0.01307618541324232	-0.06601737978446989
0.0164574537333006	0.006463343988505525	-0.01148059385377154	-0.01550901767530102
0.017441297726345	0.006067044981295101	-0.01148935335126308	0.01947988587259342
0.02264028641987962	0.003544038023369691	-0.01656673246092748	-0.007112819112719449
0.01315283366360067	0.002130288873246299	-0.01265873824193565	-0.02519209419176286
-0.01592751806414816	0.01572230029586972	-0.02527023771529501	-0.05121619954800213
-0.001915368692971427	0.01184168265300695	-0.01280602305151789	-0.05951286737799803
-0.00382616331418027	-0.001743237021285766	0.01058870218539238	-0.01540018828163581
-0.0005754653767855906	-0.009795916184736696	0.0219307420807012	-0.006859739671519033
0.001945379008400515	-0.02295096830121713	0.02968697885741743	-0.01176688915634673
0.005637964453536502	-0.03176978620998986	0.04308932365013377	-0.03897245042714123
0.0172236249256359	-0.02492466804102708	0.01416769668368379	-0.04355497485208543
0.01679191525858242	-0.002019644886374812	0.03086368181124748	-0.02819770448359191
0.0189017482426876	0.04032104268814309	-0.001294906503784845	-0.05278577905787692
0.01700220019775119	0.04760561795732352	0.004000058003184952	-0.01664819890901073
0.02421064239383612	0.03246741285069668	0.01121611890576012	0.01957204287314838
0.02719340420724006	0.0470204976482471	0.008763776049062817	0.004772616219809933
0.02406957139566592	0.03165300873256565	0.005166829118080347	0.00684128412111687
0.02363387704853849	0.006999681894148964	0.005229767740682839	0.02905946757552893
0.02230414324537997	-0.00493145888617054	-0.001935198267016142	0.03223353593262022
0.02097486066763918	-0.01317647489550089	0.006630587932026515	0.01758385492021211
0.01579041358475248	-0.01624541087807239	0.004083948872856191	0.02778641367104943
0.0197966745590239	-0.01521541231179053	-0.0001203898943504023	0.1281751141875875
0.03869750078678726	-0.005610012848860479	-0.004517919960043233	0.1508800643615083
0.02822885730564017	-0.01133891320877613	0.002306438447102863	0.0734165680539576
0.01845677560749471	-0.02930928683740771	0.01338360356459412	0.04839769800887603
0.00897480587070427	-0.02794972745256843	0.008606768998799847	0.03303102926604719
0.002693991423477361	-0.02636001480947017	0.003208536996837567	0.008036243860747878
-0.006470009847403131	-0.03462319792752662	0.003656529356535427	-0.005277036808215744
-0.02007316736461748	-0.04330833412709482	0.003229668183804624	-0.02412286156909821
-0.01820210597964508	-0.03900176441244882	-0.00729773549785253	-0.02147264417914128
-0.02082576385791291	-0.03160704927050052	-0.01092081489215191	-0.01236448465011684
-0.02141843396755891	-0.01093687072194287	-0.01316396520507609	-0.007031177260143687
-0.009451075540451194	0.006777093317386385	-0.006145549442201486	-0.01679027348419044
0.002591494977652581	0.01905773165656113	-0.03348192464332127	-0.002707350578281602
0.004246746143693666	0.03479466955275438	-0.04286057702514229	0.00149084282891386
0.007889015749029435	0.02803619728837353	0.0037957490453916	0.008937085113653253
-0.00137725897756633	0.006307308360873123	0.03456585894802648	-0.0108342283943811
-0.02124953031546862	0.001931980479002438	0.02005713823530545	-0.03366011310149433
-0.02192229098690773	-3.457947961832208e-05	0.0245523628229931	-0.04019008281536665
-0.03741917837229558	-0.03624285723748512	0.0412767290554177	-0.03695116703587634
-0.04709121259566915	-0.03602850706478688	0.02286073426586639	-0.05403608487746325
-0.05620972651861027	-0.003088401399995417	-0.02045706164697701	-0.03990070607465829
-0.05578424336656891	0.00710636855764518	-0.01098534111864784	-0.02024749425884627
-0.04119584398955027	0.009323567332536855	0.003515587023523925	0.0121418613508429
-0.01268705161630793	-0.00181778284411625	0.001546712286517175	0.02595607412989827
0.00399822836034439	-0.004660093741717837	0.003992728167890458	0.01272044411967475
0.004468094339336001	-0.01023088276806123	-0.004387346412933552	0.01319960343912501
0.01246862874225696	6.098095393338636e-05	-0.000703733187486251	0.01479958111846776
0.03241226475979918	0.02641141079815741	0.02102225334527661	-0.01765815424058517
0.03683021873751737	0.05744816680192527	0.02197056125797645	-0.02653536407418224
0.03366934535934892	0.02361886712545376	0.009242993422468709	-0.02872963649918714
0.03467946109410536	-0.006893437607841289	-0.0004080658788922675	-0.02464442310982588
0.03158168084950606	-0.01136592239085928	-0.01065629899011149	-0.02751974778393572
0.006653509943692489	-0.02152424775825182	-0.01253724972345725	-0.04586761627718953
-0.01140552749595579	-0.0140245752981918	-0.01377836077134546	-0.04801327363077023
-0.02502239000371485	-0.002816308964907129	-0.009478424536011162	0.006477133444343556
-0.06733872019412736	0.0009523332209734614	-0.02401799433714806	0.004701360326256801
-0.106274482371031	0.006250949755378073	-0.05165259038296175	-0.03263999800833629
-0.07905193371028431	0.002027743675084314	-0.03793243592505697	-0.04227269861817032
-0.05997047108453629	-0.0001048826409348566	-0.04139107861265474	0.05562485411162414
-0.03526612303769279	-0.005803805071464381	-0.03734524398996338	0.1691630122883447
-0.005779283324796652	-0.006200871475774074	-0.01836665666431661	0.05415366330914877
0.01501275059743966	0.00722300375832299	0.005692984623245244	0.006999886285810893
0.03014293034069994	0.02028220661149192	0.04110952926332138	0.06814369127727894
0.03004309256711415	0.02429435344007587	0.03945801873942954	0.0621092414749591
0.03554187515250688	0.02774496041474052	0.04407082763645881	0.00364133560494938
0.03981090599029705	0.02544317874755653	0.0490273014498841	-0.05676621386068429
0.04353491671722436	0.01442561860976467	0.03665169232231039	-0.07799941755103799
0.04138041402335814	0.004153428481688609	0.04412602275220061	-0.06901354545333192
0.02146615530206298	0.01250412118445449	0.03730850834856828	-0.05464992979339699
0.005175298461990488	0.02550237651586794	0.01579559221826061	-0.07107798844722815
-0.008081879820711074	0.01420870483957693	-0.009692141316146638	-0.04697310405060486
0.006360165112713896	0.007722225081109335	-0.0001486126887839025	0.004605313069181398
-0.0001692913121226449	0.00914497926660872	0.02433305773476103	0.2197225597758499
-0.01585180187370765	0.008503598942037041	0.007543850519107208	0.1428797649756554
-0.02496083162320815	-0.007586320653719419	-0.02679281149171699	0.03136739068514263
-0.01579533910095278	-0.02374849240278496	-0.03604271472668474	0.02940002297905266
0.009085579763153735	-0.03923563978828382	-0.01673108367517931	-0.005246033264013144
0.02330794363604169	-0.05285941888031574	0.02061221273597102	-0.05792969734874616
0.01894754313017082	-0.04827672624393496	-0.009735649887805125	-0.05691317766130961
0.01568368832164872	-0.03559119331841892	-0.01963589279892694	-0.02677289025327903
0.01767586651230106	0.008421975661981355	-0.0348698048134167	-0.01199078565444537
0.03449359272776507	0.0381160295412863	-0.04555888110884333	0.006209127816439067
0.02755156961377367	0.03798983611772726	-0.04633551577544036	0.009079537821785054
0.01689428009211923	0.02606887025099379	-0.01457317462831519	-0.003693596992582346
0.01974310100300481	0.01711159602968168	0.008429527470182434	-0.02345845630399112
0.01382535333527733	0.006150525513798081	0.0003302756117589824	-0.03582168266531874
-0.008339155074612119	-0.003667830316202216	-0.01211209117799801	-0.04904478073601105
-0.004106623332580948	-0.01238272228530912	-0.01704860184252265	-0.03352560492340573
-0.004275201414275063	-0.02657886379765356	-0.02241414358850595	0.04006237357690783
-0.006488040482317842	-0.02563291150416082	-0.005070676517890983	0.07167015817946341
-0.009887878034659426	-0.02006511068883988	-0.002624291144434131	-0.004834446913767904
-0.01929378873174182	-0.01151803683177175	0.005406092679541972	-0.007445817928510262
-0.02105534212123279	-0.01601941289510433	0.002681255540575828	-0.002925607041536854
-0.02292001990170651	-0.03885533183860829	0.005771145838358591	0.0007195778254583524
-0.0004244988756429201	-0.04465764749513765	0.002164608797027034	-0.01206280299306635
0.01158730271082917	-0.03822404689547737	0.01777034644182354	-0.01009103969418997
0.006184917350768615	-0.05275474379313609	-0.004142402683243918	0.004977792528680993
0.002340760360111013	-0.05364675579955709	-0.05126386295500539	0.008067090033986736
0.007196834575987119	-0.021584818348663	-0.02810160131862165	-0.01610856352238624
0.01224321628184915	0.03976135032171952	0.01725082354410044	-0.02983786343769977
0.0053025808226951	0.08450316863470163	0.005903679156699258	-0.02024032995204085
-0.0005940099515630405	0.05279560880301134	-0.01182542674076287	-0.01184762493148013
0.002766914508187546	0.03481738913155244	0.007442309457273071	0.005543397371642795
0.008047165335219769	0.0355071412388638	0.003350707451483778	0.01042361596976847
0.01267793185231197	0.03403767811829982	0.01741505904010929	0.03957284793789488
0.01749891140786485	0.02236985213630398	0.05355179419010316	0.07938497094950935
0.02095038994291526	0.02526690908528152	0.03015833527995122	0.04903171153058329
0.01936596841699945	0.0138408067045302	0.03908101016214545	0.01598740418418622
0.01984580342747753	0.02384374790392173	0.0297963459931708	-0.008883992061867045
0.01270132485557762	0.06241027081843047	0.00886189057767643	-0.02797987661127228
-0.005715929941611948	0.04508350098426358	-0.01404789697239326	-0.03277613974571321
-0.004539136913956899	0.01370127377801748	-0.01593021373926775	-0.03511597725366094
-0.01663876445243293	-0.01195632562444987	0.001902029003256585	-0.04516425377516548
-0.06184808996315876	-0.01975998269569439	0.01377264513796869	-0.0412974222822356
-0.04206684926905394	-0.01093055622755445	0.01030745659278234	-0.03002982935085237
-0.0002807024669425757	-0.01198491297363247	0.01410727922820431	-0.03715716504248786
0.01137156510150131	-0.01547202766483513	0.02880344476629672	-0.04365138052688807
0.01879173687437571	-0.01345267880423103	0.007520130816044918	0.06405244908392586
0.01714805045834947	-0.004407118473927345	-0.0006130517793877582	0.05522039447605177
0.005504906037661152	-0.007481879193936921	0.007412592460718492	0.02807968476751866
0.008102702994854851	-0.01846217128400119	-0.002654517914953253	0.03309139699971519
0.02349818127030683	-0.02036210052628398	-0.005560024314853221	0.01855189928749459
0.01825444084550631	-0.02367008961879778	-0.016051783925316	0.0188611890719522
-0.007846980102414107	-0.01844149778755771	-0.02442370823889568	-0.01561453802051492
-0.03137694402076951	-0.01311852689585907	-0.01979435883348881	-0.04726842273606986
-0.02156619478779429	-0.009314085552166647	-0.01825306799490885	-0.06827979617320387
0.01413852463730752	-0.01044937249574808	-0.01462144772419506	-0.03925932880248839
0.0135053191662154	-0.0182262192403908	-0.01688834589822033	-0.006958265238577233
0.005591723037054313	-0.02044194523737034	-0.0081220738638052	0.02505342880430225
0.005829861470267554	-0.01970282394276364	-0.005406442311603718	0.02057911704187206
-0.01886672123740129	-0.01401974696920711	0.006283794284490509	0.0006761090070877935
-0.0282839081608017	-0.01050452777611829	0.01556439181935373	0.002173515471039768
-0.03122981655526859	0.001842117068771086	0.02412903313036576	0.002886270196766552
-0.04730466435339592	0.01820009346116286	0.007498413765182709	-0.0009015437288493714
-0.02389062126093076	0.014644052417712	-0.006648876945022199	-0.003382715242965019
-0.02580467628841674	-0.002831612244383971	-0.001146700106008143	0.01524314724053383
-0.02323603789874648	-0.02626103735059462	-0.001424912969883112	0.02185387415318769
-0.02726119740579025	-0.04687220317456016	-0.006956118823399014	-0.008431268599246058
-0.01417665324258341	-0.03603714013398571	-0.02253037005645353	-0.04954008016931758
0.000278947635103624	-0.06059491574449996	-0.01278565991182694	-0.04740904433896295
0.01390658682551774	-0.05148946049292977	0.006843354199708503	-0.02048489448978089
0.01586535968356885	-0.02940848325501852	0.01069920718557367	-0.0143845920298436
0.006062210812568691	-0.04222615106313667	0.005401785285201558	-0.02862314298827148
-0.001667793238722488	-0.01535666568351644	0.003591218502551326	0.1309919647071863
-0.005072616109489789	0.01271752392027379	-0.01143047864946593	0.140026717955819
0.001391170826171924	0.1168563452895522	-0.02341614576888484	0.04164006970388937
0.006852820718835703	0.1815992988071869	-0.01996742719631336	0.02843778241659797
-0.01846835591111456	0.1821539327229325	0.003202009225696852	0.03474144992625448
-0.06944227619551072	0.08079957275624083	0.008827320921103929	0.0297412403957267
-0.05762071855637423	0.05672904733254888	0.002123773694462074	0.01653928341944179
-0.02170389812713633	0.0700116408637159	-0.005126782216546749	0.01234428926896931
-0.003503626574731022	0.04913373814970468	-0.01039861631340687	0.007304053636283983
0.01626407937520417	0.02368042365583267	-0.01615209348930601	0.0008323641674893317
0.03324603627854403	-0.00985457962242353	-0.005165182035347427	-0.02381457766237309
0.02455436011008321	-0.02483530246252534	0.0008008635892491377	-0.02878429180201415
0.02906830911940213	-0.03749092198636262	0.01919856253114615	-0.02482357643278931
0.0251859088687903	-0.04371886127209608	0.009898389683251985	-0.03398805116859921
0.02789437033006201	-0.03791185460824544	0.008539405129761727	-0.04987604732722222
0.02261730133439615	-0.02491130042255157	0.004300155458401964	-0.02713123544054125
0.02033388394411062	-0.0267749308686377	-0.01205952280681965	-0.01176815383097387
0.01800114734646302	-0.03797478042335473	-0.005860128042004486	-0.0126387583241852
-0.01504002745286088	-0.03563598516077254	-0.01140785675713238	-0.01146718028844827
-0.01206937661767969	-0.02988368285332939	-0.0272409207604226	-0.02383741320667224
0.007501518707339923	-0.02266760180056434	-0.003341725171915089	-0.03373725589253882
0.02653312935500922	-0.0185363348426997	0.03753031693078257	-0.03561150405891907
0.02581036612043977	-0.02654035631965187	0.08592582192768317	-0.04541010502952455
0.01676259244129447	-0.02297769638981307	0.05010623827595272	-0.07470008717599773
0.0173493713656158	-0.02044091306403674	0.01162379635939555	-0.07992578808485473
0.02109803056082363	-0.02342004715915242	0.002778925953903162	-0.01412114127466576
0.03275906085596104	-0.02054379655189867	0.009549563160614911	0.09468093454720847
0.03294115506709198	-0.006320892738271209	0.004279697197564786	0.06478301233514346
0.02420543650160796	-0.01251787135985135	-0.003857365511984876	0.06061324802349395
0.02309901335582967	-0.02107078789679637	-0.009190783617138484	0.05520460065311934
0.02717178249077114	-0.004549584225412634	-0.001068518408221298	0.02115683028509026
0.01747868807252259	-0.001429198166988797	0.021602690995444	0.01151198156227821
0.01399537524480546	-0.02050474157242693	0.01842245518453933	0.02635774703514874
0.004766798737712274	-0.02209986658520848	-0.003775999246134713	0.03053998322606303
-0.006086837311531129	-0.01661361055764153	-0.01605453832704871	0.08077908304025506
-0.01177630354033247	-0.01250593863279801	-0.004497074003425557	0.1303271530566203
-0.0001386762108726881	0.006735490220922073	-0.004044130235735478	0.07586972107289
0.007442762659951572	0.02080772119391058	-0.01907196794966605	0.005607591679037817
0.01310353387515487	0.03848829829688813	0.007103291495610189	-0.06070531648930538
0.01571040051600662	0.03895230439147451	0.02329209524202059	-0.1233044424991213
0.009193237707510897	0.03877079262324112	-0.003303035541934944	-0.1032168975392938
-0.01251962655667716	0.03575000059288665	-0.02353807170443943	-0.05818569216524928
-0.01056058133120084	0.01481339913242782	-0.02139681367729042	-0.04245205544720273
0.004176142141715478	0.003346072955332778	0.005620158994427272	-0.003188645988478705
-0.001898092552073818	-0.007459323531624355	0.006664413583774132	0.01139637814055403
-0.0253919838649191	-0.02143893373232274	-0.02709767159306341	0.004119528795909282
-0.0349903902902339	-0.02752837472479831	-0.003064976211297059	-0.0113964493809929
-0.03785838890693815	-0.02143576909401176	-0.001326650569348979	0.006014500368506748
-0.02180503208162796	0.0008938992076731468	-0.004903919204800875	0.01498382217806006
0.002953335180836428	0.03647720268822296	0.0001675574635024322	-0.03161329890421232
-0.00120877688725283	0.03527207791674743	-0.01653630584703015	-0.04625906482283683
-0.01313164080334415	0.0114807503320786	-0.0330034441351309	-0.01473786698366144
-0.01442392552657905	-0.001878805468790819	-0.04584056833084162	0.04476624771115058
-0.02658981630752788	-0.007730419487287902	-0.05242769707580983	0.07900185272363017
-0.06524338068665464	-0.01120257724345555	-0.03992443460241554	0.0245328120494782
-0.06413045915687939	-0.01041541721521519	0.003979253398306646	-0.0005550720272791268
-0.03101967318633869	-0.00479426781295966	0.01493198649227925	-0.007080382116108425
-0.02221676573022027	-0.006557938521005053	0.0167927929507118	-0.007769019934980924
-0.03435481838113407	-0.01849350362941917	0.02181964721588282	-0.02279466339141074
-0.03115346135576325	-0.00827981813924464	0.03130467226784442	-0.01883118612592226
-0.03892166571343701	0.006360384103521228	0.04478783452126611	0.02318444858363733
-0.03497783180068238	0.03679108786755791	0.02979508902568692	0.05567007029337159
-0.01711675123664883	0.03057777169890701	0.001105066039515234	0.03068892041501591
0.005759378904577981	0.01062261750675674	-0.01839931603762088	0.02264810760326197
0.004024534985867688	0.007795908275461449	-0.02406565964125577	0.01094384074941294
0.003491242799190296	0.01024936906206066	-0.02469716270039931	0.02206534930540447
0.006813548688639036	-0.00235824199761508	0.001877228400129959	0.004207217778795053
0.009200964732796177	-0.007718123045970625	0.01462164315419115	-0.09094791001490932
0.01123326280467867	-0.01220737205934819	0.009431453977018689	-0.1120825129876332
0.01878470311402802	-0.00971903169889861	0.005842741457802832	-0.07969547961767656
0.01508569033281364	-0.01110481006069858	0.001246056489324935	-0.01898446469108803
0.01954654012643943	-0.01794194908117585	0.01227312213336845	-0.04764192690860056
0.01956292687554187	-0.02899496948098548	0.01714452407963079	-0.07411191294252856
0.01789094041380706	-0.03237478743946425	0.01446347926115883	-0.06609101350512057
0.01916536283377883	-0.04292540627052766	-0.00822189509200299	-0.05178619123658456
0.01204998138469753	-0.04475930998204888	-0.02216885876906713	-0.03568367342332427
-0.001233543073347966	-0.04817656651318251	-0.03015909697451759	0.01774115086699276
0.002643020485897497	-0.0347842360615449	-0.02997653191218429	0.1597365450846218
0.0257931788084258	0.008527179830464198	-0.01383573730445193	0.1629861351113663
0.03570370613416678	0.03933838262985473	0.008311389815749132	0.04081811592385779
0.0340151744259746	0.02387275697613945	-0.001311242374758719	0.02763532621550872
0.03178600417584163	0.03026291421427569	-0.001333764981291354	0.04336947062081507
0.02330431340987645	0.06079183996395001	0.02065840174567163	0.03033997661265142
0.0281270358734838	0.02246845260523216	0.02440852699040639	0.02294560737533115
0.02275000526158615	-0.02620013252414567	0.006369069523210476	-0.007641911633510796
0.0215581359728674	-0.0230525282774859	0.001544709368388286	-0.01748393788171081
0.02334134166728796	-0.008939379648842404	-0.00108036152654308	-0.02503616741472996
0.01922173424089334	0.006033808692962292	-0.01182387307726737	-0.04884862332368898
0.02094209476278831	0.02629935312581006	-0.007580825611510392	-0.04041857464114777
0.0265096578632318	0.06862006232452726	0.009564267706594354	-0.02484605568278418
0.02105000468859265	0.1073598231670454	0.01450510706101877	-0.01876610493701283
0.01592695795920593	0.1039522136029107	0.003692823431804243	0.003203014573766703
0.001960851998087344	0.06431872473507146	0.004540596166771958	0.03220905384717344
-0.004335669357591188	0.03716416463525745	-0.003251242857260275	0.02474067773668732
-0.005404491808356219	0.01221309467534678	-0.007274479086724158	0.02445867446820515
-0.01438320050189189	-0.01462976241578814	-0.01801317681294461	0.02363192013948391
-0.01685146555900995	-0.02524934545687686	-0.02540454171026063	0.02561419939063968
-0.02836582721154643	-0.04206431533453315	-0.003771098211710875	0.03843706348091178
-0.03360005996298182	-0.01950148751357682	-0.01016380973582683	0.0375607983109713
-0.01850615653800547	-0.01501880863542485	-0.001269033373699203	0.01815725269843322
0.001736879336848614	-0.006782373665816359	0.01102422002940261	0.00333132423227817
0.006330362138207606	-0.01246140745219531	0.02173825827266199	0.001299240816396694
0.01938844120049109	-0.01526055770258812	0.02000993723606383	0.007603351279056646
0.03067578395573213	-0.009048579517486482	0.004456306668133508	0.01384585116536917
0.03126535660402131	-0.01427882492966568	-0.01215631773753862	0.01737625688667096
0.02517392256868255	-0.01455062925028523	-0.03483474684465705	0.09816893138740113
0.0117720888500067	-0.01017230030494776	-0.03735585703568636	0.07469516173440553
0.00571390770799388	-0.01375328827979144	0.003011154046166878	0.02521973807436437
-0.004842390447648618	-0.01510061606648843	0.0413900804501587	-0.008200491478727676
-0.02398023134881398	-0.02221216877162373	0.08061789333881135	-0.05482875944609568
-0.02024503633789235	-0.02620178407621667	0.004079656518027246	-0.05524986623920015
-0.02167964202634538	-0.03014397279564356	0.01379635466970384	-0.09010434258846575
-0.04864879942017546	-0.03467270574466593	0.01990379893442627	-0.1019161774317676
-0.05521674009909696	-0.03070345816862361	0.01727880635020031	-0.09328314592429227
-0.02752825204367729	-0.03366008622419021	0.009720800091548007	-0.07700828748418569
-0.007996503290426855	-0.03781517060742123	0.01839136925572172	-0.06079025826055355
-0.006937863584086054	-0.04647425187780729	0.02712075946101785	0.004056561832938997
-0.01117141614293366	-0.02130200882866372	0.008795798623057419	-0.02534250565348114
-0.01413132017973773	-0.003898445419834186	-0.003238636691891999	-0.03210967952573124
-0.04548761044840906	-0.00781759567057049	-0.003006395024601656	0.09698844942189547
-0.03174853343033806	0.01987923738182143	0.001081085908303382	0.1028079012705761
-0.006025858234011618	0.05898644074242305	-0.01185101840136479	0.008802364478314249
0.004880693397404691	0.03975356663299535	-0.01421219141142325	-0.02363495194514238
0.009717221306515547	0.01642508597325761	-0.0167078811628451	-0.001773823172270279
0.004365848333163933	0.02619906139023496	-0.01086674170779326	-0.0002945805959478142
0.03177132735904163	0.04526293248955193	-0.009642850908854948	-0.01009208993926898
0.04677958371715077	0.03116806331202186	-0.008085933152438883	-0.02893282136381023
0.04481138192295455	0.01876928171338032	-0.01016527149329647	-0.04199349313404214
0.02566516382025853	0.01136433681753309	0.002174720657884784	-0.04589220580377368
-0.01796472508129432	0.01088379360558983	0.001665601823380357	-0.04652829580159399
-0.05026155588858423	0.007694026892433063	0.009447147925169628	-0.01871227073850995
-0.06746257927196962	0.005075489164635123	0.007659318390484825	0.01574809424401939
-0.09589741167057722	0.00162831615099434	0.00610623212664817	0.01868155907833987
-0.06487580155329353	-0.007894190932113007	-0.009590304457817198	0.01443939145650286
-0.02377678445956606	-0.01898494842856995	-0.006902743333872802	0.02013923278660399
-0.02588177877300787	-0.01773630263191962	-0.01882998573959574	0.02496076644731725
-0.01952654687622762	-0.01702493609597068	-0.04052790572644063	0.02898994504744088
-0.01387919077809456	-0.02265724548923961	-0.04880302351394024	0.007722616066447383
-0.03134194438428752	-0.02977483150019136	-0.0344707567821823	0.01404932460323868
-0.02424675730254449	-0.02564167868337167	-0.02254352232763876	0.029517430470185
-0.004401885700899204	-0.02124389063543225	-0.01429792982260949	0.01913786767568315
0.006442353364269759	-0.01241462124674673	-0.01478700369179932	0.008816644514359541
0.01920811268445123	-0.00429234734853136	-0.003097440569100988	-0.0124089900369014
0.01324654990786107	-0.006052712635693835	0.0124968774578107	-0.02076436182970857
0.01970486696851726	-0.003543509491575849	-0.008992127057593361	-0.02095631176493078
0.01654640009964895	-0.000183660016839149	-0.004397507487342149	0.002293755308721533
0.02953721926053144	-0.001148796827174447	0.0269328050388724	-0.0003358601842916603
0.03501976630603165	0.0001742798206538876	0.0179714149230243	-8.538456971309127e-05
0.03410356174899717	-0.008380201953310552	0.0208956111429129	0.03880043017255401
0.02979322951709045	-0.01632059216352987	0.02199727920647876	0.0466375537369571
0.04006268450438703	-0.006710669272466952	0.009465703057286428	0.03502812831389546
0.04460586437688176	0.005844188805561935	0.009497621791177968	0.1094263719926862
0.04155259981802803	0.01876899147534284	0.00435709961470723	0.08838232697549285
0.02904019306144012	0.02736032200826819	0.005819778962309499	-0.003062204136453952
0.02265077612275351	-0.002227431569961713	0.01492932897918807	-0.02967978966320553
0.01707941419104303	-0.02284289752989221	0.007406442673440022	-0.02672593812921541
0.01210738746285805	-0.02906768766860736	0.01047845228105508	-0.02694524277909587
0.009905740078803205	-0.02622618822533399	0.005734467052887367	-0.02862137943290666
0.01180984109104124	-0.02117849985484218	-0.0009623644537131017	-0.0201585465131472
0.01655618211031185	0.002782111163025676	0.005695137614609674	-0.0134110023699538
0.01619724228207284	0.02125328119069184	0.02595026210799604	-0.007278467249889059
0.01957368696941397	0.05040317476734026	0.01091406228624452	0.0003549045864373776
0.02381269344053413	0.07896095713960191	0.005736915179052856	0.004501141037834971
0.02951753964800247	0.03036571933074745	-0.001533301560137976	0.003730532031074403
0.03651749974104999	-0.003926040173025848	-0.007583151975010709	0.004730835429163863
0.03424952220009664	-0.006075862668952656	-0.01690553176652318	-0.003097991192496323
0.02437236430406262	-0.001199118970171878	-0.01040931568322422	-0.007053969817522579
0.01006632794405243	0.001125089157805996	-0.01761563529618392	-0.01129575475608097
0.001707011109477141	0.008177745938252741	-0.01051838662854522	-0.007345312307704807
-0.009994556816092298	0.01153923311952616	0.001077721641655211	-0.01303198915626349
-0.01384957359459811	0.06423557111581209	0.02015065536511411	-0.0131108786071628
-0.01876434715238264	0.03839663474243981	0.03467666821629529	-0.0246978961847484
-0.03011083233919356	0.02736002314649967	0.0200039266451443	-0.01766724354122437
-0.03296554884143743	0.02545848213348673	-0.01239083475781921	-0.02623697583172399
-0.02237723379730714	0.02804010472287591	-0.04812636496659515	-0.02934381310710656
-0.007968793542229702	0.04344085281040579	-0.0885330918289341	-0.02768741113152138
-0.005423304389597622	0.06059567324622415	-0.07844937067433992	0.0190183306447662
-0.001529697285897415	0.04142736498328074	-0.008593735905433917	0.03334483227099941
0.0001853063203714874	0.008541252351722451	0.02384697687233046	0.04296187722634423
0.004093268044243405	-0.01284546493922722	0.03948832588878411	0.02877461889365696
0.005704662260277659	-0.02728391424132866	0.07202350784393627	-0.01114726538736109
0.00149908236303681	-0.03935578557795839	0.05174229729353889	-0.06149627188035096
-0.000976983953369104	-0.04744133989862061	0.01787290578309908	-0.0629768793503602
-0.006883424286344611	-0.05213696963512434	-0.009828609133509976	-0.02029728524960749
-0.007465669715213927	-0.0631141368158345	-9.564284590814383e-05	0.06736647784339414
-0.01961782218009246	-0.05543706790005943	0.008152348474333005	0.0341064122720566
-0.01471246499271412	-0.0403185466114428	0.004954917466988029	0.06483341642184876
-0.008835119953666586	-0.03166755914969552	-0.03219667791957248	0.03603876596316608
-0.01613662257381432	-0.02141999231605218	-0.04874883342212799	-0.03655364273762058
-0.006741145875005078	-0.01537798477922513	-0.05419304242341162	-0.03623740403142207
0.0007066302738768361	0.0009354648453411877	-0.03152721697098755	-0.0235717822582287
-0.002940765628175538	0.004516223222526128	-0.005029152488196114	0.0127419770200673
-0.002469559844485607	-0.003297997043809838	-0.00145692261258151	0.03918181182026033
0.0005234583870662043	-0.00365800081765085	0.0154813510513409	0.08730873132939175
0.004851176045035713	0.02895112526068425	0.03388863857572278	0.06324400864242413
-0.002574378532343798	0.03758987163992568	0.03831504033341071	-0.002367074906084052
-0.01029293735174009	0.02141938231146426	0.03102844964598196	-0.04325616311693525
-0.01116940046357859	0.001533571766307769	0.05937156266267705	-0.04806004987739752
-0.03013122894460731	-0.01736632797042911	0.05672774877357838	-0.05610029839456968
-0.07013748155277397	-0.02509504725055549	0.02280172207598965	-0.03495405543536141
-0.05507344408868606	-0.0360155383254221	0.00586856437168787	-0.0201219756964572
-0.03712017948843609	-0.03669624723593545	-0.01338502282143325	-0.02312969827876869
-0.02608690539406689	-0.03686494284988875	-0.02607843356766226	-0.01089308563819653
-0.02934345544354958	-0.04468652155442638	-0.01546275666989601	0.002670910614042173
-0.02427949077872109	-0.05683046645242448	-0.008355577009444781	-0.003742752202552248
0.001631101369260273	0.009016574934381764	-0.06321562000379691	-0.004153598746822377
0.02914130457027123	0.06846581230367521	-0.02780458315294849	0.002642508895697166
0.03920493081475308	0.07723447051992062	-0.009413368485434309	-0.006583531636552034
0.03816059301352555	0.05022132932918204	0.004864960595336476	-0.02200576804208841
0.02098321831683421	0.03835506767058047	0.01501797968998833	-0.02857684622772864
0.008483044796171657	0.03183985916058269	0.00500994405064817	0.05845949399640683
-0.001504577926279038	0.0161018216959655	0.002853698326646558	0.03137741856064307
-0.01282553003524283	-0.01705791009776817	-0.002806498476710432	0.0007007077594611004
0.02419437383794031	-0.009182087305050697	-0.01923227808718652	0.02543147187769047
0.01780077132976459	-0.005255293983047713	-0.03337164841265954	0.01273722327891681
-0.02099858751361751	-0.01250380572369947	-0.01936344911695676	-0.01610757822724026
-0.03545770941721903	-0.02469714133170456	-0.0106267077139329	-0.05358845000933744
-0.05290328158120206	-0.02300557481357749	0.007433680224758868	-0.1014383828655676
-0.03665104843759127	-0.02255750356825672	0.0466257730978651	-0.05368153511341315
0.004335877969407331	-0.02226403112573632	0.04345017906823598	-0.04131355367293607
0.02466166377962078	-0.003796758962004076	0.01170094917937662	-0.03926764941395358
0.03964895465681978	0.01219707189771552	-0.008113484963689644	0.002496949412199682
0.02079789947019879	0.01016109503886408	-0.05294948347875716	0.09113565823027246
0.003085005846400358	0.01006642496364552	-0.02907963658699439	0.09103578736205341
0.01991867786937325	0.002287988174699323	-0.02673728975140053	0.05398085486898411
0.01073816263065357	-0.006672152909698589	-0.02333653967584058	0.02486127635294334
0.001467031252056389	0.005145357462560431	-0.0008742809490300898	0.008381005806135379
-0.0132963156060791	0.006833937307112272	0.02768287072060785	0.009520016787857834
-0.004652431332038917	-0.005510130110772694	0.02679276063008562	0.01768045415247774
-0.01046265977389614	-0.005090884281701781	0.007973899830981302	0.02649280498875395
-0.01513290840062099	0.005731865627246545	-0.02982452698372203	-0.01060733386278009
-0.005821238995125276	0.02318999478140436	0.006757584490834466	-0.004761656508826535
-0.00879973412445471	0.0197726613723584	0.04099749343246921	0.01072266145953127
-0.009005857905652543	0.0191972086932631	0.02118769357864781	0.007117683716987276
-0.01541178022756001	-0.006324676051265816	0.02762488155111062	-0.0004379446649715448
-0.001938403357855938	-0.01534836111068389	0.03280575325664682	-0.009328422797497581
0.006595582044703835	-0.002648016651566063	0.0243457673198378	-0.01077400913784266
0.01063227712252669	0.008182392219344709	-0.01540043928270321	0.003936647567027081
0.01401440445328187	0.01563727811296104	-0.03110059963077149	-0.002182826059945022
0.01489038029721899	0.006962953127969236	-0.06417520089188206	-0.01260255681618634
0.02596249840203667	0.004076689181414619	-0.03616729459500814	-0.01864288022926653
0.02556557207311622	-0.003034291639830003	-0.02097530231307096	-0.02316037500502389
0.02423176379729651	-0.01009079108851741	0.01645126544093334	-0.02922324633711356
0.05130882333444607	-0.0071060698984918	0.05580470133881087	-0.02142962911050439
0.04240659145245875	-0.01855868171139835	0.05170302334844554	-0.01973433446665107
0.03987865783300199	-0.01546934649451608	0.02426480645955105	-0.01471175606982266
0.04095887847369718	-0.002372060775775748	0.0006721853321653722	-0.02492297021598633
0.03689551884890849	-0.005264210052282726	-0.01466810377893282	-0.03062369386247315
0.02748713713813435	-0.02214298628512202	0.005055764698967661	-0.01270298397625166
0.02305403324258389	-0.02091899996528105	0.02867227681265497	0.04341759414748223
0.02650959768753482	-0.003840356429423483	0.01708281956907257	0.03689929921232007
0.02272899437312226	-0.003321909467402078	-0.003329706604069651	0.02610674581353574
0.01413219434911577	0.00443182516480391	0.00842744556131189	0.03708172368698524
0.01437884144292647	0.0257390031961986	0.02830375894623939	0.06109011715876756
0.02209385450221857	0.03257497358939204	0.007748217309383003	0.06653752841657155
0.03178334701873459	0.03511457902049104	-0.02765878120164288	0.04932854549072749
0.03033923799956236	0.03252471790108471	-0.02565190326840509	0.03622287022231281
-0.002346271369519182	0.02308405804327681	-0.03041889069500156	-0.009473662581161517
-0.01027983963298567	0.01589674351206848	-0.02968143423881603	-0.03396419005846455
-0.02413547261313644	-0.01118461768434339	-0.01306309434823102	-0.0208615197181478
-0.03217321678734762	-0.02430652415126077	-0.01476999650210013	-0.01152806280840384
-0.01387504457616897	-0.03132937342135789	-0.02389581231690747	-0.007603812627279966
-0.01767416559168436	-0.03705121587026319	-0.004788202386840273	0.02849541861733674
-0.06280719487633449	-0.02997047378982803	0.012610520288313	0.1312529918604745
-0.07266249756201042	-0.02019571403627588	0.02323562867617797	0.06165354823934323
-0.05699706715013344	0.01463889813101323	0.02064136006655671	0.01697750968922883
-0.06883244353261658	0.03058663083670773	0.009762654906441012	-0.0219660200798394
-0.05835982784492054	0.02467116726952973	0.001006520867849996	-0.01327728660035106
-0.05162671483199784	0.02662541026191462	-0.03412112102190226	-0.0670687876252338
-0.0523302453018776	0.03716452576969228	-0.06097525376582429	-0.05622637579871503
-0.03890462658642429	0.0143322583286844	-0.03014016732956161	-0.05084736668090559
-0.03299404213798585	-0.005353640531027212	-0.0282414757790644	-0.04811491941623448
-0.01853139084902987	0.01066174816714274	0.0106154667502886	0.02652545508966456
0.00896523202324552	0.002295612275962122	0.03318488275979529	0.03110966004067595
0.02147358626199007	-0.01797404474731413	0.02322913121342047	-0.01948039991566428
0.02396557374771915	-0.02264607143126966	-0.003650970479289264	-0.01692297506119512
0.03105137716440869	-0.01089513865219855	-0.03415057300911692	-0.0103966679475683
0.02766300045077037	-0.02072623434325659	-0.02664664435161496	-0.02271613968579509
0.03122087240038086	-0.03200947131569491	-0.01429360334690706	-0.01984134717462631
0.02764119387611847	-0.04311849979160341	0.01060889213654188	-0.01241643153423997
0.02215081822997605	-0.04374969541032273	-0.008682875045013274	-0.002218221862122142
0.02655229022490584	-0.03005014145917326	-0.009694136472373157	0.00297708967635056
0.03127678711397644	-0.01424228882984027	0.007234803726943692	0.005097544467234072
0.03160751273335766	-0.001729095975042372	0.01251659793138695	0.0422998204501276
0.03706455259030029	0.007250347942495697	0.01871266320730135	0.06156039435705796
0.02497292241831022	0.01135185473689585	0.02422795163869004	0.01307468889491033
0.01750749022802933	0.02731820732041618	0.01106613736545532	-0.04014744510077767
0.001763716189534099	0.0411641963523055	0.00457886431630072	-0.06176131383518264
-0.007697018231236189	0.03145142832524218	0.02971038160817956	-0.02829969076108251
-0.01642038163338045	0.03075999080762584	0.04749525969579062	-0.02064881229922365
-0.03269542237776314	0.01984453244003385	0.05160448148527535	-0.02684608951532632
-0.02526953237220187	0.01231210931411656	0.0438320495129642	-0.04915042571203794
0.005190515428380673	0.005383336758802483	0.03683789167851268	-0.06799817882221301
0.01887214275252833	0.0004763287836917509	0.06864435787508628	-0.005687295445235259
0.02556312801254628	-0.006032150543036926	0.04905068321195423	-0.01723512939608783
0.02714884964272574	-0.002956227185178745	0.02199414457320082	-0.03039057534299494
0.01287203945817088	-0.004182810661096333	-0.00148385909870521	-0.04664075424337861
-0.00374598798218182	-0.007712272297637551	0.02467210576907967	-0.003959311726293664
-0.01793297842584427	-0.01120396890642316	0.0116509256065662	0.01703859014683585
-0.04229297279977767	-0.01407723713841456	-0.02664910380552048	-0.01595361864499528
-0.07881997823180502	-0.02561280421397938	-0.05902934071422648	-0.03930243972980749
-0.07102726765764489	-0.02892140918346776	-0.07130564917334876	-0.02665652139853108
-0.04827712751609952	-0.02079170492865695	-0.06907535401713927	0.00612902825029434
-0.02858292356165973	-0.007832128193916181	-0.0678844277827962	0.0455378254053001
-0.02102457772982591	-0.003569663903028005	-0.0548211984629302	0.02348570772650961
-0.01888514524309696	-0.007703619607161628	-0.03900048483987387	0.002655587267327354
-0.01144432073831759	0.01722345293543402	-0.03043773378505358	0.007039477945478893
0.0102884558788299	0.03472509734147323	-0.009460440891518268	0.00617212863030714
0.01315300030002183	0.0265226210390319	-0.01214209125494456	0.02985623293164971
0.00936411779526591	0.0162509870114923	-0.0155530376874199	0.03475135576505493
0.01359470079748128	0.01187963604329502	0.01115627746867436	0.04322083692464243
0.0334058681873115	0.01690303523792649	0.03221285231390154	0.03923840493286418
0.02826526052666955	0.00837087966310239	0.02852801783250697	0.03092006990288225
0.0237537993118466	0.02383360888840629	0.01930379894056988	0.04074101458680601
0.02827903410037478	0.01995633164163862	0.02077486116177069	0.06350569802960655
0.01095050006941656	-0.02378939627151771	0.01231569320742412	0.03961539846809625
0.0001448449443071082	-0.03548276562705591	-0.005780647435391892	0.00356263242083736
0.01409723181414418	-0.01187443185425256	-0.01028103294388922	-0.05799076996229287
0.02067048163077732	0.01563924898701785	-0.003451844412605737	-0.1296075071837418
-0.003611914473744863	0.0311655735260129	-0.0004090536297833827	-0.1386038296989439
0.004452992595833399	0.01461632428312203	0.02474236443462481	-0.05500845782911359
-0.01370062598245308	0.03035806120751139	0.02626216627863603	0.05748790908702026
-0.03443738360917784	0.02428063256793116	-0.001270458443895478	0.1804763181144029
-0.0390881205253354	0.002068722024414688	-0.005112251085568364	0.1837852619524497
-0.02592843870234629	-0.009252876526730699	-0.004257067580964621	0.07796572342081354
-0.01941590041621563	-0.01022697875291134	-0.003951960783176868	-0.019886230281204
-0.001511464502427862	0.005471921698942167	-0.02130707074836541	-0.0418413222707798
0.001675028120223293	0.009887117429849617	-0.02730668973415723	-0.02578620816637304
0.01025374952641802	0.01497232064454284	-0.01948469381465339	-0.0268772965020222
0.01269250804323015	0.0154161747301124	0.001217465613165839	-0.02007283004194419
-0.004156422696028094	0.02091248359075805	0.01408171182458565	-0.01838051785074089
0.004153916766036041	0.0223752592121927	0.0135716995502144	-0.002855877382111933
0.02744665500395778	0.0102572927124295	0.02176562779919141	0.01682151168743517
0.02073291359022436	-0.006886687892903165	0.01878361820971577	0.01780233964970207
0.01601984148778869	-0.01147238392395006	0.002675693672573139	0.03717332461964423
0.02828181600201415	-0.02465538799627389	0.0001832023508551437	0.03690949948119839
0.02556886097164307	-0.02707128533419615	-0.01352223940838226	0.01271763133632801
0.01500204760135473	-0.02828717493920796	-0.02383672139537551	-0.001059588923206883
0.03479303050828269	-0.02488500307335281	-0.02094370121493944	-0.007326393241976393
0.03931667921848695	-0.0156225139260852	-0.01148891270112728	-0.02093009192057289
0.02783838160667623	-0.01131413718438414	-0.001687285720456773	-0.03282449103043
0.0292509130642648	-0.00329091890283046	-0.002158210452694028	-0.03582189520726223
0.01633435620299609	-0.01191444618066291	-0.001204446289255908	-0.06008061520673889
-0.007247156643208999	-0.0259327440529873	0.001034623704754681	-0.03135944464885004
-0.01257359550621079	-0.0265378862199986	0.003321746830105936	0.01642268591938177
-0.004671105422143146	-0.02371069115604433	-0.03618774242027315	0.02172763033570401
-0.005805732082393385	-0.02789211957777176	-0.04470052755078308	-0.01217462100364061
-0.03041345752995389	-0.02436655021957822	-0.02189218600445302	0.0003949414236573924
-0.01531663659927928	-0.01861965476952147	0.02931907421624667	0.03926422178876967
-0.008305489146141898	-0.01155664647873437	0.04506346269763945	0.01247234541586786
-0.03519628352580538	-0.005294695348643518	0.04773437712505078	-0.0175686046322715
-0.03102694269323794	-0.001291912353171032	0.01322543912541968	-0.02544672133418713
-0.0142707497360691	-0.005254151955936223	0.0005885504052486844	-0.02269715910643393
0.01046036303917229	0.002615711878131926	-0.00462928925910164	-0.03571100152882908
0.01995322274511872	-0.000974824006833488	-0.008023225587702482	-0.04408273850314302
0.01924130445071547	-0.00577438022821895	-0.009092590465763054	-0.04811170116139749
0.02907962143035733	-0.007776304373168185	-0.03414649096273548	-0.03395504937303214
0.03421366825691352	0.001655019777597406	-0.03325895031256475	-0.01031637327741876
0.023101423396012	-0.004698304497894241	0.01756342573338654	0.07126853576456185
0.008098302157842442	-0.005405744849956526	0.04890801611458313	0.05610818874364951
-0.01469580291258005	-0.02432109374409944	0.05591744172938272	0.04600234304285376
-0.01236390336782262	-0.03957126394944319	0.04034867158785103	0.05566222869395627
-0.01995754852248695	-0.04030432519806224	0.0129911559295784	0.04897889153855549
-0.03037413575866033	-0.01440383792221391	0.01718106898420095	0.02179136046076601
-0.03226718780677864	0.003667953606968597	0.009386565113218455	-0.002728650161741795
-0.03582109298886831	0.01903820277109681	-0.008451960209454349	-0.006284656588926557
-0.002760349524673982	0.04001962047394692	-0.02454697858542657	0.0003725635644328584
0.01331461145823484	0.06867635337947565	-0.01894213515430531	-0.01390754059871024
0.003973027920967224	0.06249287698589821	0.0252228530753257	-0.03316439497581244
-0.01128323697008355	0.04524247203591918	0.0503875291032117	-0.03722143057072256
-0.03861213826798521	0.04195335836098832	0.05080031643857728	-0.01680800933669395
-0.04619926193152484	0.03359592795777837	0.0568219140691992	-0.01057949116938253
-0.0498415602373561	0.02257924710106855	0.046021769167179	-0.02338927980976507
-0.03418243220370959	0.01679921749225697	0.005199698567565989	-0.02435503162162248
-0.02066495777837372	-0.001902258301953398	-0.03688381611630771	-0.02305569528040504
0.002585801131069891	-0.00639280557521617	-0.04321948297268465	-0.02769567814666334
0.005864039397974029	-0.008470015586240999	-0.05502807206990631	-0.02820030670259976
0.0226573533884928	0.008538511188617825	-0.05175959826706451	-0.01653808136232611
0.02671866910619764	-0.03760704466072901	-0.03893517454361067	0.03136018278962729
0.02623442128306906	-0.02524942187989972	-0.03071103228939017	0.02392368801236887
0.0172602127979641	-0.02595574376774733	-0.01875048272987194	0.002739258361177788
0.01421843105967306	-0.04229882850953075	0.03050564069930322	0.007166094184562073
0.0121754124750639	-0.03508374953887178	0.02075393742070847	0.01845681941259083
0.007866488211314436	-0.03992744521010002	0.03215691882709533	0.02023501673246336
-0.005803582610157452	-0.01939892096670747	-0.006884379598617364	-0.0006981318278759766
-0.004312842085518416	0.0353745909938178	-0.03219969768964545	-0.02355146931681467
-0.0006957799636666511	0.06487352310060858	-0.03279033695846258	-0.02392794749038205
-0.02408178243625534	0.02666069412366345	-0.03694726469470469	-0.02029209551723163
-0.006961506922686394	0.04965272595825572	-0.04163088984813189	-0.02723506653369226
0.01782457221108573	0.09213445157117198	-0.0449272184608023	-0.03337333242699265
0.03476751847143311	0.09138958782206862	-0.004149555502893131	-0.01486282798463376
0.01433423281804403	0.04113298255316041	0.005345339375906067	0.04914116881956222
0.001945471173821496	0.002674060574187946	0.005945073402557006	0.05948809216590339
0.002756985224244756	-0.01099077533270714	0.03214837092188497	-0.03630004098231829
0.006392379300610431	-0.008294345610520811	0.04869886854181416	-0.03237464317916571
0.001810558638315256	-0.009881867256534109	0.0675358842161668	0.007258230345911639
-0.004957820051716503	-0.01477238979037987	-0.002452751884642802	-0.004217262238054404
0.004614992735913728	-0.02517710080427371	-0.04866993551141084	0.01713752533028441
0.0002132685746248325	-0.02649357157760949	-0.05977992382153968	0.1130909923161697
0.008304301436869424	-0.05739274459546879	-0.04241773640926029	0.05894735155013659
0.007451884637579067	-0.05575252476218411	0.009386664579716802	0.03758030141845531
0.01950569661647821	-0.05004877739322494	0.03846325474374114	0.03043190705022959
0.02460673690595724	-0.02832622316788312	0.03399609023416775	0.01168291113765242
0.04651666317068969	0.002154755612887305	0.02616130988344736	-0.01962243064749125
0.0584630677767153	0.0300935570574913	0.00426394802072601	-0.03814548339008867
0.05952444971560446	0.0009523148110255812	-0.009537103718209117	-0.02203755172939634
0.05847377374085014	-0.03417544644390463	-0.03575857160753527	-0.0310116700350162
0.0437148374436865	-0.04825998308559462	-0.03198657691454117	-0.01897728193648831
0.02911858676716781	-0.06504518272397825	0.01083999907770673	-0.01326922754266735
0.01093193430117136	-0.06072453736604702	0.03018824421385602	-0.008939782090034877
-0.000972870623570014	-0.02325773958341193	0.004276828832652201	-0.002939142916342895
-0.0131374539468737	0.02467518121451648	-0.03823882448251704	0.03351829756419922
-0.04223495679656283	0.06159486388503757	-0.0361417875872513	0.04243582056731533
-0.07177735242750802	0.07077932129026841	-0.01337349284109058	0.04051998108021236
-0.08246165221544043	0.07699013818760103	-0.01091248091644358	0.01703175056184231
-0.07790174409369378	0.05493129181222931	-0.01008569403434613	-0.002341005615476054
-0.067114405658589	0.02451191908305568	-0.01188265716948345	6.509759881906082e-05
-0.06146847891545407	0.01524431161929555	0.01763334318680658	0.0008847499581234633
-0.05874104126100738	0.02905851116482671	0.003859077586297019	-0.02254623549569006
-0.05054002533531818	0.01227352087723061	-0.009922617669590692	-0.02329608298150461
-0.02985436312705394	-0.01501254364171064	0.001964655827663044	-0.02559559434317433
-0.01062982547793057	-0.005490137898765023	-0.008626148222758055	-0.02243150941800367
0.002357261201424187	0.01788091653906665	-0.01041295241860414	-0.05903952889508297
0.001141328915562147	0.001161906273587772	0.05449889787323963	-0.01440045263361572
0.01061939006851038	-0.009612196543819548	0.08620586400053035	0.09145652405224558
0.02694395903051225	0.004460904131513555	0.1073775110890589	0.08694264894088281
0.0159725263072346	-0.009210528161238813	0.08452416541703962	0.02272251262270024
0.00356243527967972	-0.02634856913573514	0.04144277965591561	-0.02449813179003075
-0.001235890878812847	-0.03855790267327904	0.02173701224260579	-0.05052501321484119
0.01810391847252191	-0.04573924274863416	-0.006508360858904703	-0.08305350423020426
0.02127975889056774	-0.05150684442744731	-0.02056707142744268	-0.05221031478405915
0.03129138974446277	-0.04562302632420061	-0.03342776426158017	-0.04049321716797563
0.03788382782109645	-0.03319328446944273	-0.034688997467654	-0.03739652872203328
0.04052318145098545	-0.02939856793788115	-0.02316066413066783	-0.01365092907337547
0.02786504582518257	-0.02639703239209782	0.0329576854536394	0.02147149223762646
-0.0002698339547190259	-0.03678009015470945	0.03473066910745948	0.04995301514790097
-0.01505895538265453	-0.02941609666946958	-0.02491355052018455	0.02584852474671237
-0.02249606539162639	-0.01270574121889118	-0.05673910512937788	0.02854772039080615
-0.007860390205560033	0.0117102822819768	-0.05975172878480375	0.01584878353628547
0.004627820045389408	0.03746892477765781	-0.05218090612979099	0.01449704883003232
0.005609211025895781	0.04805472030067447	-0.01157806168222245	0.002691002130132896
-0.004981135993211046	0.00525405815336458	0.0174966244500588	-0.03007203294751123
-0.01809955182475638	-0.04889170904174087	0.03200379473330919	-0.03471157946639143
-0.01348195779702403	-0.07625371186585288	0.04110558476710578	-0.01985229526320995
0.004546140008355985	-0.04778032814601332	0.01392940292433505	-0.02139126776521112
0.006458638627247325	0.01187840577104114	-0.02371174621468117	-0.02914341184903785
