0.008051443940069399	0.005699767876721544	0.00444074979483943	-0.003838776260175198
0.005583228119235468	0.008556287204036917	-0.0008413058340930987	-0.002200717076442015
0.01186178458709698	0.007007314819040424	-0.002340814974025863	-0.002292393051816765
0.001354888817087299	0.0002011314873270978	-0.001862200085521961	0.000722736028194469
-0.003640378766357463	-0.002603711270421879	-0.005385535296867634	-0.004378700411284925
-0.001632208698354784	-0.006550826586802221	-0.00291189963246034	-0.001110361893776783
-0.009439220422192975	-0.01205674762530879	-0.008745560226330044	-0.003785244260986869
-0.009415458964174395	-0.01780915990605062	-0.01115733091158717	-0.003201981229165921
-0.01517627268432607	-0.01916775575975778	-0.01317531082222519	-0.00537960838515748
-0.01962850832571289	-0.02338237420382814	-0.008519451467665941	-0.001458452784705128
-0.01156786864144814	-0.01331139312539097	-0.002187469269243337	-0.0006098982407562576
-0.01089709570293604	-0.009765713946791404	0.004098593151870659	0.004345686865929204
-0.006466669455229802	-0.007801496743001382	0.00774515253292551	0.0009702760069459951
0.006139796726372746	-0.003342820323986119	0.01115495247712503	0.00493044931265871
0.002761605517404187	-0.00190992390942257	0.009866367519634189	0.001504708772946942
0.003403521495528118	0.008124326652832971	0.01072575667008826	-0.0006016235316905744
0.004767465230008345	0.007845299460712309	0.002074692091686189	-1.537577462037933e-05
0.008983500195034643	0.01459404380766112	0.0007298685043228579	0.0005245096476271082
0.01338051652665874	0.01825595702795147	-0.005709626403775283	0.0001808126617819933
0.01494505585356936	0.01514781293487828	-0.001673205409309408	0.0002345514803880973
0.005215054655205238	0.01495710248325527	-0.005432418684821399	0.004108968409212471
0.003572699634533729	0.008905288625235786	-0.004376994355117578	-0.0006459249782271762
-0.004318530809962144	-0.0002159911252656746	-0.003528980294484549	-0.003648647342184756
-0.006964740611009292	-0.0101825338746535	-0.0125095083428933	-0.006626054862082369
-0.006064577334983178	-0.0113657788795427	-0.0106764055373423	-0.006678296398671658
-0.007529794351838503	-0.00805904649834435	-0.007826357702639519	-0.005702779215524759
-0.006788187278161117	-0.01112375339713262	-0.007063033163601247	-0.003753459267728823
-0.004657018077670199	-0.008496039942809992	-0.001160999269885149	0.0007767238931378041
-9.996728713622995e-05	-0.007526600896207137	0.004978821642269543	0.007031446296431463
-0.002423531581202721	-0.002435808976461388	0.01073020807490543	0.006658072336521907
0.001846417556294016	0.002755499282104328	0.01411407011692624	0.009115716560661343
0.006419518637762346	0.007847885401961551	0.01351234518667432	0.007698020032551758
0.006613571457068055	0.007555571844165863	0.01033530086113478	0.005519684757812155
0.002397992075493863	0.009586613916696631	0.01089737418334232	0.002337875165665762
0.005950687692890808	0.0124885960251113	0.005210814372868539	0.00120860790101668
0.006466313681707006	0.01461443144068212	0.002267706094016315	-0.001948960645319249
0.006360723330923725	0.01343242642094547	-0.001902297414584039	3.570886821731996e-05
-9.996237605919757e-05	0.01322260240290609	-0.007618367442833073	-0.002729592923318815
-0.00104504494340237	0.005578433798724483	-0.009564403192316037	-0.003125853915685456
-0.003089610521689741	0.005988132403696063	-0.0100307262185649	-0.00302178099846801
-0.005856429886129989	-0.0006663496158175499	-0.009146111025197761	-0.008509379018972505
-0.009754092056229631	-0.008893904463222128	-0.009928785855300668	-0.005315224539604898
-0.008008467770864143	-0.008252788842179368	-0.01060160498380346	-0.003775434538466206
-0.01019656312052944	-0.009566440607141779	-0.008376606834518758	-0.00101409299085463
-0.006424873652148709	-0.003059542021916434	-0.001559345609004688	0.001115760190373014
-0.0003414874036999047	-0.00280280011475756	0.005109054803279551	0.007360797749309892
0.004055331659757789	0.003641777909420669	0.01358040573059207	0.006597937831196502
0.01014263053357273	0.008418231055673235	0.01212231149059596	0.01163711424465249
0.008545828226405401	0.008324082200417176	0.01595430337164763	0.007016667484241269
0.007267809347340333	0.006411744242370415	0.009929566254244985	0.004807525913648237
0.008933361759434369	0.004210896048387263	0.007800541946018827	0.005623524749761236
0.0108562323822338	0.01009528173442564	0.00467468185009702	-0.001630900442011568
0.0132581465492645	0.009061461038676647	-0.00324340009569199	-0.003624038262557101
0.01328217794987246	0.008744005191183015	7.101697120505382e-05	-0.003066847545726762
0.005221018892090815	0.006503471691277692	-0.007017400044132733	-0.00439960415123915
0.006543493637080391	0.003535999204285278	-0.007485065056865532	-0.004529707954119955
-0.000608064028320397	-0.005410876126635795	-0.009100917474352032	-0.001227210307963646
-0.005446988608621421	-0.01243180835135521	-0.009258822654568084	-0.01040671487807861
-0.006209294875370426	-0.01594972945342437	-0.01594995270309341	-0.008433633777873992
-0.008345241471378157	-0.0163262243593862	-0.01121694802826325	-0.008088039176842414
-0.0103087751296762	-0.0169632402343454	-0.009064901320706613	-0.003915788962583482
-0.007897485883369146	-0.01016273865662418	-0.002395179854408806	0.0001159107076204386
-0.0001214086021511962	-0.004714945484201355	0.005358054710571165	0.002392320661601818
-0.001304342846968944	-0.008415865769976135	0.01492091001785889	0.006103085461455575
-0.002750204223490726	-0.001848886099178211	0.01463068540248423	0.006684013705969006
-0.001851249373170697	-0.006057872695622918	0.0125928109992907	0.007652357931219725
0.007982618226253364	-0.003898848518902605	0.01035131389812765	0.009592912525548208
0.005159486452308557	-0.006265481241537875	0.008098374802641344	0.0007641841468132056
0.005416880768367796	0.004966665753906828	0.0006470114342833281	-0.001539068882991134
0.01206435734038084	0.004270875864654221	0.003113434811421416	0.0001845846871956062
0.005333004309093056	0.005659840810541558	-0.002804749849489244	-0.002601694567620888
0.004852085454456662	0.002800234028472129	-0.006072388974580835	-0.002258192772596661
-0.003499713164116079	-0.003150249243373047	-0.006286215966109942	-0.00208699226659071
-0.00574743874265286	-0.005071229358601297	-0.007321122352560605	-0.0056239889395556
-0.01232132145961921	-0.01575781445378164	-0.004799754037885275	-0.00443411076560826
-0.01405945208811025	-0.01994784323557709	-0.01388550629964978	-0.004377736161577882
-0.0133090352241608	-0.01943862548044211	-0.0109387272651204	-0.004875773012763892
-0.01381931850792593	-0.01601936577755677	-0.008437367421392632	-0.0004452151896758212
-0.00878492696163719	-0.007907118672911483	-0.001352265461691065	8.713184018060429e-05
-0.004889159381651667	0.002073742584745755	0.005591932602320019	0.003883324244764893
-0.002594244665877572	0.002044550057209831	0.008467739963092944	0.006605710167578229
0.001169113882971236	0.006251209980869927	0.01355194380686585	0.01056483145813639
0.0044807772004219	0.007010036372497723	0.0165884390824158	0.005456427105732842
0.006300089855100444	0.006539059466943789	0.01323009499800178	0.003971755059446143
0.00691460438115376	0.009182545061095454	0.008509876818874895	0.00335890813067005
0.00858074013902925	0.01404400981201211	0.002107050205443746	0.001981548175322396
0.01171732364484967	0.01547498978973207	-0.002625357697021559	-0.004192910627748297
0.006248354422085128	0.01633042772268615	-0.00683538389558415	-0.005386529010315565
0.007418204727710679	0.01355674920433324	-0.0107472885883655	-0.004294120377955907
8.265000586065341e-05	0.008167270334002455	0.002784595873883822	0.003965764836058749
-0.0008091412503346802	0.00317967048714698	0.008684010285892984	0.003747793842982537
-0.01567905565817884	-0.01092780381089047	0.008122283287448668	0.002727875270114742
-0.01445200417610716	-0.01197320350641918	0.003904276177507474	0.0002282792893957382
-0.01656480870319624	-0.01098245066751892	-0.003257639162992542	-0.002786093997897883
-0.01521020562417534	-0.006477600091414273	-0.004026111692089224	-0.004281687748581327
-0.006045856795656599	-0.006010911970055328	-0.01223811876452869	-0.003271712435308505
0.0002798303509900892	0.001291046043760001	-0.009760618565353934	-0.004342803171933925
0.0007551991469174327	0.003950984806072669	-0.01383663622071549	-0.00733048310146885
0.00389939337703164	0.007313591907779759	-0.01268397982542591	-0.002803712784788386
0.008336131506244213	0.01264253887399377	-0.01562608383527727	-0.003115232341079659
0.01035705148623391	0.01662595439171087	-0.01657704317527856	-0.008225222710524331
0.01008800338648714	0.01649807523926453	-0.0199615185516689	-0.005749808751758076
0.01130263677080262	0.01845497636921144	-0.005962500224330112	0.002092103367552923
0.009888094897069256	0.01560902357807403	-0.002437468684952148	0.000164854160889506
0.01131279189872122	0.01292103437760928	0.005044846477354552	0.006455462559706612
0.009111943016718116	0.0139019932956592	0.006896453552106033	0.003976786403093471
0.01090826179995365	0.01009889391810748	0.01569505734442786	0.008301013189632873
-0.0004381884407756782	-0.004060034017422596	0.01663059372205965	0.007375531504439005
-0.005418032685012914	-0.01642804906067425	0.01947751716467436	0.004849476108992379
-0.009885117685386826	-0.02317765446991078	0.01079039202968433	0.0005265091608751717
-0.01272252730286772	-0.02630800180589003	0.007686628282862948	-0.003253610522176671
-0.006887951272433322	-0.02656167627992318	-0.0005468864436666872	-0.003669078827086188
-0.004685498508910452	-0.01820268740534009	-0.00188131767253976	-0.004701895690781653
0.004459035819127316	-0.0108531461508946	-0.002227067270060941	-0.008835423632162734
0.004064052022811087	-0.00556779885419928	-0.006724519037985844	-0.008448813118004489
0.003410196028613673	-0.00417689597164992	-0.006429923935078965	-0.006295300113761728
0.001767289941399126	0.0007992404669724244	-0.009304715527242647	-0.005300948227468413
-0.002760680175915179	0.003357789543432504	-0.01201610619387782	-0.01040922637239959
-0.002179649923099182	0.001625149954255001	-0.01542246574581671	-0.001731372893897616
-0.001629795611055771	0.002691625838903039	-0.008999722509407114	-0.001084389824645119
0.003601232037675223	0.005163818918086245	-0.003950908306506791	0.006372080665463417
0.005511307204352329	0.01704161133166055	0.003429634894029615	0.005269420409120922
0.001674271854986517	0.01469804346771842	0.01633432181537492	0.01154349200117176
0.001990761932386646	0.006416319022930371	0.01710001447723549	0.009633701850474855
-0.004717264813445957	0.001876225280161859	0.02077317269407224	0.008057001738364683
-0.006641190240728666	-0.007477849995729854	0.01970815737263559	0.007556014105833737
-0.01269232675755558	-0.01445091757608301	0.01558800024025866	0.007282057401471351
-0.01393922742278203	-0.01383268528144154	0.01115323495017123	0.003176262170662099
-0.01256643953588871	-0.01161937296724812	0.0009604927393020484	-0.002915782597152842
-0.0023520097798502	-0.006841038312334025	0.003065052479572701	-0.002841084316256841
0.002019583079302837	-0.002284797997172771	-0.005708956466856996	-0.004262203314352294
0.004505540093155872	-0.0004116641442036607	-0.009442744324802695	-0.0001503479489173825
0.006393857624313192	0.002113973826712381	-0.009714439501511664	-0.006343093305111833
0.005819620326485925	0.01039161690424036	-0.01346043502047256	-0.00430437928652916
0.009434359484748809	0.01243168587093454	-0.01140662210190527	-0.007493745873302675
0.01316388549763573	0.01727342740776549	-0.01026089243441598	-0.001527407271645064
0.01535741180831483	0.02190517037874965	-0.005081477260911709	-0.002511078193209044
0.01597836406597104	0.02378860869276995	-6.072564601395684e-05	0.004224215088422575
0.01322989821832117	0.02427781797606495	0.0095596032460546	0.006494699854952925
0.01228347319945414	0.01922528231787498	0.01663941016026373	0.007182070966784143
0.003932596591311698	0.008534048456835598	0.01524395727562891	0.002679305626130075
-0.004052116487111965	-0.001834014062029466	0.0159699939396517	0.007499062123267734
-0.009957572311004642	-0.00686779106093731	0.01242316818266363	0.001884081067715659
-0.01178570518703805	-0.01560588270048915	0.004727420428798642	-0.002879072316796257
-0.0124054832985729	-0.02742656026752527	-0.0009994547009004346	-0.001228458645789589
-0.01415046805644954	-0.02603052087550557	-0.006731920287777065	0.0001119399779010414
-0.01065820783553361	-0.02175924626600574	-0.004463153933232875	-0.002447764728272801
-0.005846898178953716	-0.01585991434927694	-0.005044542446087361	-0.002761599511156363
-0.006460163546440385	-0.009664097049711965	-0.008030246452332808	-0.002813382770404434
-0.003510956366683855	-0.004041913892831046	-0.01211059030672561	-0.002236683305651175
-0.003670304967637089	-0.004014102501807362	-0.01156963048253117	-0.005050076618743115
-0.004939408656526453	0.0003400473988251474	-0.01501051527558207	-0.007679393496526026
-0.002193052575824401	0.00837727398311525	-0.01185807085373615	-0.002022777556217136
-0.001893909550841774	0.0040814799454618	-0.006850046425478015	-0.0002527841090184974
-0.001957190733609813	0.01063906230022013	-0.003831816347932168	0.003244556308005441
-0.002132122681199081	0.01034886732506447	0.007172239471036805	0.009292250705585876
0.0009125866157863436	0.01143031945450543	0.01016951583720229	0.01091002699484046
-0.001524936545910653	0.008053723149338854	0.01233293363577117	0.007234093580930253
0.001153643167307	0.0003853471097787373	0.0152330016555085	0.007341146978437877
0.0003207443160265039	-0.004390094343902174	0.007617593974659546	0.004605752372144838
-0.005249735342875042	-0.0107992445165527	0.003180286843607788	0.002548691031544733
-0.005511586365804831	-0.01249318143632182	-0.001456528929131494	0.0005676892405100956
8.086959517800531e-05	-0.00829592988068395	-0.002452006551650991	-0.00283119212223932
0.0007041625925773436	-0.01135199054445517	-0.00397220503392645	-0.001514503918167416
-0.0003060506775788181	-0.001365210692709197	-0.008877707448876847	-0.002757345702620281
0.003104042008690295	0.00419676453454044	-0.008724098892719179	-0.004993704296264482
0.002961637091861178	0.004759693303388649	-0.008466941016458894	-0.006023608625072289
0.005884599719966093	0.01301167225516647	-0.009954630983709634	-0.00629448488427531
0.006751042824096622	0.01267956615053471	-0.01414371683167562	-0.006714078590179621
0.01115084400889978	0.01872347182463776	-0.01331099575653057	-0.005733555685184073
0.0138640249295489	0.0179529020545999	-0.006053249421252939	-0.003572859187006684
0.01429682023353429	0.02171204486096341	0.001594943329240247	0.001328067306194105
0.01358050892916544	0.02009499377635751	0.009040106955898179	0.007454644383625573
0.0154421383238938	0.01448759628343847	0.01381316422337443	0.006933060232476884
-0.01770597018006883	-0.01739284212650295	0.01863764832036791	0.008523808741929812
-0.0118558725138871	-0.01123022167613022	0.02064960597635538	0.006656844129225125
-0.0104929803952622	-0.006297969547773482	0.01158712650759872	0.004257259276741449
-0.0001235754734640517	-0.004808544407964391	0.007017537035582402	-0.0002187796206963173
0.0003768585749417866	-0.003042185149103352	0.004005126290667054	-0.003975354821282898
0.01329511118606518	-0.0004700386426728325	-5.927098893957031e-05	-0.0005703094775740368
0.00946829098055158	0.0007777136292271252	-0.007690741410567859	-0.004543570647605295
0.01397026346172653	0.0008829059193245318	-0.007188172401474687	-0.004758724165212134
0.01554388485569425	0.004651193541095572	-0.007463321098767258	-0.003709875073706995
0.01422726337337312	0.008250730028179613	-0.01142663519066964	-0.003303258328674692
0.00653581334468667	0.0006907386267006561	-0.01260974187129646	-0.01051832961295082
-0.0002532241718278531	-0.005343774762125884	-0.01097139532806993	-0.01011203190765579
-0.005788693303346649	-0.009765129556975229	-0.008812343512004901	-0.006380664611957254
-0.01049276998634736	-0.01580440605581426	-0.005120308936724011	-0.0005734008048906283
-0.01465149751505941	-0.0241476386469617	0.00523900935205897	0.0008211275238066186
-0.02202435844288898	-0.02525844600411879	0.005830493760703559	0.005296513340730802
-0.02378899839690946	-0.02261303911459788	0.01414491290778361	0.00562893257744147
-0.01882684168622924	-0.01907019731410822	0.01623693445385304	0.007504039489652994
-0.01099553305139759	-0.01378392003198799	0.01912963543750978	0.00509263871580333
-0.007310296945724352	-0.01123446876228987	0.01134092188048026	0.004443869597550193
-0.005712771704599934	-0.004361935466559589	0.002851183530627467	-0.003655079266190118
0.0005000129898323331	0.004184044982702438	-0.001929078287022096	-0.006126089125551386
-0.001322343802726412	0.006334674293716334	-0.006018918176608525	-0.005101932929255064
0.0008913583409993943	0.004531555480285419	-0.005126792805001959	-0.003169966447213306
0.003294567232563758	0.01503858845374036	-0.004219274122905174	-0.0002167193893176062
0.006762821041517229	0.018630642354838	-0.008548296419037977	-0.003381754030912867
0.01357194789533952	0.01914900136226507	-0.01340790515033658	-0.004777227276295272
0.008203945940003407	0.01583183068817827	-0.01381795662535869	-0.006925581973679426
0.007128213728481355	0.01239868352830155	-0.01018313996187424	-0.001018595714144067
0.002326517503287188	0.006749664902374907	-0.008230355648076861	0.001522958186173217
-0.007278821466011037	-0.002592321720139973	-0.001158252342249173	0.009044703678818551
-0.002815140963638944	-0.01311876842381858	0.008765467841873448	0.007560826710801559
-0.003510655913102117	-0.01839471382051086	0.01305965917538605	0.009591699950194734
-0.008616855571237144	-0.0191950795157628	0.01814392232691129	0.008690487935801036
-0.005992954747482324	-0.0154602250453837	0.01514732641343663	0.007463880175319338
0.0003398568321914959	-0.01002542023919754	0.0121992850247387	0.004732060519344784
-0.001080307253426451	-0.007510802443763791	0.005791562546514957	-0.003316513008411816
0.000631408328618231	-0.005742036380082577	0.002484680012167989	-0.001332494770609476
0.00151348232946549	-0.005227672095356728	-0.002358805586733381	-0.005924499036205126
0.003748434853662194	0.002612505986576103	-0.002630800316884715	-0.003965103835823664
0.009132746227146363	0.003981418935861501	-0.004625707712447889	-0.002636690063220976
0.008834627722508322	0.009596996703718714	-0.01082202289004345	-0.002524378603817452
0.009326070754773099	0.01495249245491415	-0.01253865798989657	0.001099879241703588
0.009909815084730551	0.01936645025732612	-0.01569160507750027	-0.004232777165097729
0.006421303817563455	0.01779648539880417	-0.01761480554039632	-0.001048726837041406
0.007989674943261872	0.01207772527320385	-0.01377703968020604	-0.003677756612179666
-0.002385750213866234	0.003121799346465806	-0.009111806937352751	0.003153901835433921
-0.007188000779373689	-0.002714976656151099	-0.00530440500376619	0.004495235843259364
-0.008376231364173009	-0.005663694062768263	0.00583927819744748	0.009282769025893303
-0.01281177477881837	-0.007323576608183444	0.01261547950049264	0.007662287929608978
-0.01261223108307433	-0.01032877102334086	0.0181187154705027	0.00965673878973273
-0.00940592741068285	-0.01255358212907867	0.0154105115150484	0.007003209036066603
-0.007003305888236695	-0.007126511804047554	0.01356270942185536	0.002882068478786788
-0.0009358912764678751	-0.002019613099543164	0.008821376825326101	-0.0002779086224487289
0.001711582714414786	0.007478937770879937	0.002960482388712012	-0.0004012509983460639
0.001736726395716264	0.009644079544308397	-0.0009300161857527714	-0.003132348575179845
0.006691334970782951	0.01376552947842168	-0.002240305024736001	-0.004430208068919384
0.005142597321349146	0.01113272090696646	-0.005668032443164129	-0.006210744760129706
0.00696202772734323	0.0135272495901768	-0.008708581623632977	-0.005402661326422808
0.009207393789134068	0.01921450282152188	-0.01271064639293691	-0.004823022499985707
0.01314901681843432	0.01838583195143307	-0.01056692888008254	-0.01094796777301244
0.00788048216734696	0.0171481905182919	-0.01563449247858334	-0.01139200456250661
0.002712507453752182	0.01277338470812023	-0.0111056795059875	-0.004921589257358459
0.0003346327379420567	0.004824932101180541	-0.008870001285216918	-0.003424187543165268
-0.002986312618266137	-0.002433427591200695	-0.0008381481049079886	0.001069778623282238
-0.009047750791754404	-0.01882440117473011	0.006232831815908837	0.008312817263325884
-0.01296460578286229	-0.01831562339518629	0.01457441599453518	0.008371729352509646
-0.01130256258315103	-0.02113182605627181	0.01774461099567421	0.008516543288233279
-0.006700625869517592	-0.02157566126806005	0.01762246161701522	0.00712131693988878
-0.005095113561521169	-0.01862270561554965	0.01376575698268222	0.002815693129614852
0.001653846168264245	-0.01176320895304174	0.007047724882005336	0.0008532473146921976
0.004407288685974791	-0.004309457133390537	0.00389729530845416	-0.002376434940156696
0.005551227623111309	-0.00352891201580149	-0.0004877495777527833	0.0008581629702701547
0.004952742559642935	0.002330846789883318	-0.00732159938194009	-0.003986159934792647
0.005642385301991835	0.003271285696807043	-0.007375650760667621	-0.00433588473639617
0.005962972773848238	0.007280864288174782	-0.009369097734078463	-0.001867654668012002
0.01166175577112899	0.01431366290413481	-0.01165415956406238	-0.0007337350593813415
0.009957042428173695	0.01949772245054227	-0.01274770310091826	-0.004190550712215008
0.01081385986526367	0.02115967263581432	-0.01386059628321397	-0.01026927965059476
0.004447670766556554	0.01740630050818221	-0.01245048238531564	-0.00902072434998704
-0.003583253205019426	0.01540874596003493	-0.005638841970845016	-0.005890486490653258
-0.011878366548441	0.001175913965649044	-0.005341218547915933	0.003241463364847927
-0.01173844192715802	-0.008417782637372065	0.01381039235943082	0.005506010729234633
-0.01741225875664166	-0.01366417241854112	0.01741272638407282	0.00946686251932099
-0.01359325704165271	-0.0139001364730207	0.0229377236039909	0.006809639343267259
-0.009067484755805759	-0.01409030216431646	0.01888844955717254	0.005724660059143367
-0.006551715192423658	-0.007047081894653606	0.01530322034733925	0.003303393354196702
0.0005810403432928043	-0.006665608927146369	0.007834532062929106	0.004000069798594059
0.002594816344281443	-0.0007465877845357016	0.006035891032072151	0.0008286459359962788
0.005800181320705321	0.003179921147882726	0.002809395065014555	-0.006030136685995233
0.007655480006660862	0.004434025306395628	-0.003507008049745221	-0.003939128743651033
0.007387997127092887	0.002761459238311363	-0.005374790969163405	-0.003028535469727862
0.00747723761609394	0.003805619809718446	-0.007118491021131636	-0.003801913796575483
0.007456905809146839	0.006856485895010827	-0.008249875668562889	-0.003172635986667596
0.006893185713807161	0.01187979775140749	-0.01274491307422163	-0.009766965911810588
0.006302287427178557	0.01204621095806232	-0.01581465009636999	-0.005957257882282441
0.003795453099033098	0.01006895088888152	-0.01084869138805251	-0.00291473757497738
-0.002699963121770137	-0.0006939796985143448	-0.006417820916460227	-0.0006144396054289211
-0.01665646440047676	-0.007168408580197566	0.001135664806649704	0.002283504977093436
-0.01670126689953959	-0.01364486145115867	0.006356232739064684	0.003855941544005223
-0.01420218135099855	-0.01533710315882644	0.01470155967972997	0.005422772356743505
-0.01125209414533133	-0.01641022203023221	0.02165048515092318	0.008286174517982262
-0.01101425548272685	-0.01572575783191148	0.01231689747182065	0.006310308957132271
-0.002373297319942289	-0.00877516690467541	0.01747952511914668	0.004463365803870706
0.003355438142247802	-0.006203132704696913	0.01251225780378134	-0.0002395896487926506
0.007532133035050279	-0.001380417569188801	0.001912762491874349	0.002269704337672441
0.01347478256397192	0.003679644948774115	-0.00327116293969348	0.0004703828171157194
0.01001380470111148	0.003263073627308794	-0.005097434331958483	-0.002818359210368311
0.01308597888088313	0.004832401797861883	-0.009489501602537823	-0.001961035618556415
0.01598662774814147	0.005229162757276284	-0.00936116304663186	-0.002385994131553853
0.01543528734451727	0.01079927881119439	-0.01214796172858046	-0.002506807402506454
0.01901113530128608	0.01477272254541205	-0.01329843681550496	-0.008646266359326815
0.01899124370247717	0.01953557501114337	-0.0141302434583359	-0.00531318683548552
0.01573586598751226	0.01280291036970324	-0.01382413814547786	-0.008811219223077274
0.004921088958714325	0.007644882384312772	-0.008490076672169777	-0.003178849626108122
-0.005146372274387052	0.0001402024412893792	-0.005151740973598896	-4.703921987254805e-05
-0.007328529942516488	-0.008875439140498183	0.003871834185057664	0.005500988365665181
-0.01896422333580065	-0.01058306333271584	0.01014698565494499	0.007004362509525597
-0.01556341851238425	-0.01370030232379845	0.0175138888404615	0.008530663997853141
-0.0176263659046929	-0.01317818591931913	0.01339666405093414	0.007839266324560173
-0.01602300764965557	-0.01216793368731971	0.01081427659334134	0.00908019113297661
-0.008647222474329403	-0.008125405727345427	0.008810655427605374	0.00316893422090596
-0.006782630191574799	-0.006118298200031618	0.003856373608415482	6.747581028683855e-05
-0.006235546173176582	-0.002669404094688863	-0.001152952687733128	-0.003434256645658815
-0.004584504016726816	0.0003075910963203429	-0.005887397308076651	-0.001795583965303588
-0.004430928723523195	0.00264327458882662	-0.007558857491227364	-0.005057355918902256
0.002610096144561626	0.00384808224943664	-0.01203285839524165	-0.002172451947765065
0.008254264000081502	0.007956167465928747	-0.009836313909480828	0.0007044210537233694
0.01306946682392454	0.01018653940091125	-0.01418866151855087	-0.003937646807746311
0.01016542390716463	0.005588096939312272	-0.01204543283418113	-0.006180278357615305
0.006826402829472141	0.000246477761856585	-0.01437106805216082	-0.005120865566967071
0.006776895145994589	-0.002968989284718739	-0.01078530755871714	0.0005401132816261377
0.004979966716160923	-0.01286069650814467	-0.003839120712119756	0.004201010215015473
-0.003783293290468635	-0.01671907308071587	-0.008569551666114445	-0.00390205183266464
-0.0109799227150986	-0.02085722824656182	0.002348589011550511	-0.0003264248175552801
-0.01290196159002178	-0.01792477534980386	0.003130546497799105	0.0009128133513392904
-0.01638720060744792	-0.01408085702696687	0.01133401630673677	0.01073159916789254
-0.009142974127660941	-0.008366070674991748	0.01790417599311526	0.01155017968338768
-0.006586652822490514	-0.00102131043840009	0.01859811349989947	0.009348277438357181
-0.006530237072975505	0.002324654413077683	0.01432260899174248	0.007145751709984679
-0.0006785115229233985	0.004980095927423213	0.009268401277620417	-0.001225506962148055
-0.0007071732799722297	0.008428141704671595	0.001133680104318109	-0.000536426673247479
0.001403141065073743	0.01407855775278357	0.003327565076003732	-0.002926625197645864
0.005264738544308553	0.01628985462276144	-0.003538450974114794	-0.004658372017212078
0.007562869514302071	0.01960190950336849	-0.006745036241650437	-0.00585393310673453
0.008958635100668633	0.0239949783343716	-0.00867239889953691	-0.00333665673905279
0.0089408587137455	0.02086777178902522	-0.01145958172147746	-0.003069351783180675
0.007272415178708559	0.01381583503132428	-0.008689380262140379	-0.008000516255677239
0.00386122470526908	0.01034962167579605	-0.01428037556574762	-0.005401200965657376
0.0007865492041395478	0.006160373038006251	-0.01133058338671438	-0.003219105682737973
-0.009742542218058366	-0.01239464034021436	-0.00749456078655177	-0.0005141696373314337
-0.005482403189202053	-0.01650200217340985	-0.001853210800438863	0.0008512810561073055
-0.008102387329277899	-0.01368165555977387	0.007835837081272704	0.005022289633583471
-0.00401465973943823	-0.01587336236766994	0.009245420991342056	0.01165549317767118
-0.004086980750121349	-0.01718480721557958	0.01872907504082424	0.008211801344517962
-0.00410041554745579	-0.01305272751928252	0.02125442500545957	0.0106591161319656
0.003173889894999173	-0.00240096080857702	0.02073442069925281	0.006319330163183422
0.002998517294552412	-6.588952706775433e-05	0.01054100976391727	-0.002958598673971469
0.005442557337776916	0.001709287143232282	0.00694260226043326	-0.002798589712040715
0.0008952580732896799	-0.0009641492185976486	0.00564958514637572	-0.003138205560753198
0.000642119071632035	-0.001305951807508033	-0.004095493003919723	-0.004294712338742178
0.006660001543742418	0.005942951066415599	-0.005075169629691212	-0.005395402053972642
0.009029477797173766	0.01633589376182648	-0.008918017290016305	-0.002225878564800438
0.009771685403246242	0.01281216488425658	-0.008451373291230701	-0.005103900833376826
0.004521539365779045	0.01121320691943437	-0.01146789884907509	-0.006579392523971304
0.0008690289409020621	0.003741286206932366	-0.01387877029533911	-0.008987682459903756
-0.005328707222195415	-0.004599771952613683	-0.01340384936853826	-0.00630704186197208
-0.006628844149884928	-0.008421956588365911	-0.00594706985955005	-0.002670592869998329
-0.009199910814004324	-0.01248753144927484	-0.003034825522002428	-0.0007422899432520158
-0.007739997099596437	-0.01436801133610357	0.001995103362145866	0.005135985356293601
-0.006784882635798661	-0.01240647007034574	0.006900190142211651	0.01115387529814159
-0.006024984390086628	-0.00885742560966403	0.01567711059872075	0.01135361006221043
-0.001149227240063012	-0.0008643545744765379	0.01820712752789356	0.006751907180943572
0.0028545890440243	0.003582994752437585	0.01612495326706505	0.007416651119452852
0.005465417347527313	0.005702070143974212	0.0111343443562278	0.005759010088529246
0.004975280015801518	0.008370449951679092	0.003634863616098385	0.003434383341119405
0.001976466527355748	0.007989719418246078	-0.001789936703182119	-0.002251694695783628
0.003003190659719648	0.01285568505008645	-0.003178845688221691	-0.003394480208690579
0.005282459814662623	0.00816298814883213	-0.006473591606793992	-0.002630440056476565
0.008566633215949002	0.01632506729878372	-0.005545015882422445	-0.007051872274898337
0.01011357901004287	0.01883781636485651	-0.01072928075704564	-0.004713443039454315
0.007069891313945031	0.0168681154992672	-0.01455122381527483	-0.007474726147354938
0.006517548401485445	0.01492717924838657	-0.01460331582030757	-0.008624272413898376
-0.004244900684714693	-0.0002635544674790334	-0.01591078487088737	-0.006758093285914485
-0.01116401182308425	-0.007821404230410335	-0.01220954631688449	-0.002520131238096702
-0.01174177024467819	-0.01176375526875465	-0.004392570787843357	-0.002206759215461501
-0.006306751875032531	-0.01183191647241873	0.003234673382818616	0.0006671121144617184
0.0004830346964170492	-0.008022495426642186	0.01225378904235203	0.005776127488152539
0.001835417235634074	-0.005286210477011744	0.01359360837545741	0.009329844756363738
0.003342897618657853	-0.001095975115450293	0.0145978775029656	0.008518759242723713
0.00472680220554957	0.005409571497232541	0.01578156026965812	0.006262298495898612
0.007988503285084787	0.006646767041736069	0.01054555596979875	0.002169365846638119
0.01275056229250399	0.004653509004821886	0.006521119162009929	-0.0005218721005650065
0.009488065450345749	0.005762487447232511	-0.002273541889078486	0.0005156719114053327
0.01108032799060738	0.01026211567943903	-0.002385396060243811	-0.001882453124370248
0.01313963535381105	0.01299566943230733	-0.006459996037112324	-0.004850847165066989
0.01480352541522905	0.01382568130951623	-0.004921558498702707	-0.006744711550426343
0.01359692141526937	0.01246468962452988	-0.007064336396497515	-0.009711144758040141
0.01013673204934378	0.007160120612653482	-0.009196480248550258	-0.00697289143634853
0.006158707571434464	0.002863537707146114	-0.01360547280128657	-0.0095546085126492
-0.004593744186744941	-0.007054982237877592	-0.01769823613304651	-0.00656570130682483
-0.01673673628161552	-0.01627488345688435	-0.008262883857676045	-0.002871315127397384
-0.02318567394461094	-0.02331748233196681	-0.007361715727590519	-0.002065702919858029
-0.02088596927700589	-0.02203571326794688	0.004293015419046528	0.004816948979317152
-0.01955134454468315	-0.02243217339734146	0.008655123452967668	0.002871017924013857
-0.02045058750988134	-0.01881172546731796	0.01148916621916524	-0.004172393647198409
-0.01695444180550152	-0.01718606531326556	0.007351489537443862	0.003113093849692901
-0.01149750043730777	-0.01350225344384613	0.004182369501730588	0.001136397820917176
-0.007809820601269028	-0.00360378154432787	0.003443897547818265	-0.001474084221031173
-0.004219685899483947	-0.002917048659581325	0.0002292977064090593	-0.000411330012256026
-0.002554928314149317	0.001712031840733698	-0.006889764747344164	2.989672373862767e-05
-0.0001528240719836048	0.003478376214559491	-0.005685932646548053	-0.004110941198311665
0.003956849357773205	0.009108717949242768	-0.0080828944271586	-0.002177791008706351
0.01159810068683132	0.01311253170063355	-0.005099552525082117	0.002097244343364463
0.01133428012914105	0.01437503000784892	-0.0004320017008047946	0.003651601341518358
0.008135353432881253	0.01003682508712374	0.0138660542428823	0.009911552532120936
0.006743822320119084	0.002781631277028228	0.01918929342678201	0.01278850814113248
-0.001146627491617697	-0.003021296158128263	0.02137554143615445	0.01402005841870329
-0.001521693388128563	-0.0140350751027956	0.01682025592015381	0.006750090297924435
-0.008032528259946091	-0.01737213140572625	0.01346816321399107	0.00767922592881748
-0.006157487507650591	-0.01554213814915439	0.008433971599287365	0.004018589899010056
-0.006018790808645222	-0.01599868778445689	0.001652668689962339	0.001718728149655209
-0.002677852686607573	-0.009221863640578726	-0.004927804368686593	0.0005396619487580554
-0.004613165362703468	-0.00468561717447515	-0.006790069879031252	-0.001657063834827814
0.001778628821657669	0.001035579569321426	-0.007351756463369058	-0.001251259920070038
-0.0008850008928206978	0.00611604241380451	-0.009833606213907015	-0.002238374398010817
0.006506933819395909	0.006531641933466402	-0.0124153649743082	-0.006648869411001793
0.005004112034204201	0.01002813744709016	-0.01464481625847681	-0.00787069385104274
-0.002275437604147959	-0.00140943164553501	-0.01746205482375889	-0.009939356840251106
0.005228821444289613	0.004274297348460807	-0.01307190143086698	-0.002898890494840413
0.002640787386768544	0.005505653688903926	-0.007133872402791243	-0.002868238540836729
0.0082296336549742	0.008329739221672846	-0.002568455961211745	-8.187328766074571e-05
0.008794701374468172	0.01028281323928321	0.005022494088594902	0.005147659744687741
0.003014751660259273	0.009329031937721563	0.01493035264274094	0.006188299450939635
0.003743439724655675	0.008048079976357982	0.01677742549741163	0.009102761682012123
0.004752115655064132	0.00840757368293547	0.01831886505963556	0.006212125051174927
0.004122471859425421	0.01166455350681408	0.01363022618618838	-0.0004993071555975799
0.00690903868662351	0.01151647073970179	0.004294632429555557	-0.004870565526168273
0.004423795616144787	0.007233820906459873	0.004155702578809701	0.0001373500079839123
0.002481769503462892	-0.001206032897445132	-0.006129561577166723	0.001531490372385115
0.0005980576672981671	0.002678576346213276	-0.007664345107867412	-0.002290592980819926
-0.005951376374223187	-0.004127546018889691	-0.006235290061039617	-0.005602274868590361
-0.01225167746005977	-0.01597993889171642	-0.006919288214870518	-0.001323922917403908
-0.02395707291142952	-0.01742181678047911	-0.009010025451562929	-0.0004059809363658598
-0.02271169810190797	-0.01909926416983599	-0.01259227134620662	-0.008219118883598036
-0.01750129318500364	-0.01808347737303877	-0.01251450518897885	-0.004373486897106631
-0.01294679687691283	-0.00845278913185921	-0.0112593126024697	-0.0008063311036236949
-0.001984104253469054	-0.005462190021194788	-0.004810451954706716	-0.003839811376951476
0.004863023682220947	-0.002299520180729537	0.001411543238847772	0.004099535449064627
0.005971465848510515	0.005249135248404603	0.01165537069680957	0.006551415583602937
0.008933389107343453	0.005825281944889944	0.01018990808730117	0.00562339066638709
0.003826739644111599	0.007180574532794284	0.01211346446201125	0.006322981567899903
0.01044123765428273	0.007234945350233371	0.0137150822754224	0.008473498062929493
0.0137809830598376	0.01482899526526016	0.01327941898839057	0.00850457375671439
0.01790607618421667	0.02138940565288298	0.007709431435013507	0.003041706985109086
0.008079976831928067	0.02094320809816834	0.0005495618733509046	-0.003488010505670809
0.0086044695762224	0.01840415520766193	-0.005404789764939463	-0.003643675062111375
0.005336285809057582	0.01578262012067862	-0.008264511685348854	-0.005921083114111617
0.001666996253110324	0.008712460716741265	-0.01227103693321352	-0.004228087604086262
-0.004976625924312314	-9.415710849862501e-05	-0.01600900708318469	-0.003333993479993652
-0.003236206999104354	-0.005580250590206177	-0.01526322590899695	-0.004875214558275973
-0.007662843991200642	-0.009018643530101284	-0.01829430633696182	-0.005723837766928379
-0.004245408234007994	-0.008733779180408316	-0.01511763350608441	-0.004804059395445487
-0.001689148918397985	-0.008201922758196006	-0.007378411772200478	-0.002911534976986494
0.003621771564862178	-0.001358947375997447	-0.003471734566628215	-0.001361617696240317
0.008018765558052008	0.003502035166298613	0.009821314211313504	0.003887851019280956
0.007408676932387365	0.008198113568600939	0.01587799147923732	0.005102571964337015
0.01097608051303638	0.01414666522045658	0.01813213506704275	0.007297520033680635
0.0068887479697273	0.01136410226252833	0.01677414675433255	0.00863134505139646
0.0109635369288659	0.007101533924599378	0.01065451901670164	0.002734536826971484
0.01096984202335784	0.005881442180588662	0.006194015586780182	-0.0005258067760916305
0.01273690150887556	0.006071598787971527	0.001250084929675494	-0.001529918858048434
0.007138201822600278	0.002666766129564228	0.0003198412485208796	-0.005562437567766573
0.00504509792538007	0.001852092544365934	-0.004173046486457573	-0.002082290106455422
0.005152884153265173	-0.006312060273550414	-0.008402967632631301	0.0007983435423753423
-0.005312578279295563	-0.0161448775816937	-0.007874120868005017	-0.001030798931199503
-0.01119120183168604	-0.02350102780577454	-0.006700146082718145	-0.005893106643988899
-0.01498367275454348	-0.02994973810001763	-0.006416257924356667	-0.006163308397787014
-0.01365023677890191	-0.0278695647471725	-0.01264037809139823	-0.009098179509027571
-0.01312865289788359	-0.02670478323070992	-0.01191593247366872	-0.006094239686011133
-0.01201154637769565	-0.02269607655136931	-0.00550279495642068	-0.002412155564845253
-0.009853420312643862	-0.01891326299701458	-0.0005997562437050707	0.003404444126624741
-0.007698715450608605	-0.006030717123831323	0.0004934262271619748	0.003019898516040308
-0.01104896726402506	-0.0008441442936339326	0.02238286435768328	0.007996218799527402
-0.006721292828808141	0.003804575585951855	0.01917501053899806	0.009468910830265517
-0.002499170163247127	0.008072571118014465	0.02093350799278314	0.0107384205550473
-0.00305870096884034	0.006565572094035819	0.01149972150103417	0.00141644936415652
-0.002849245283486162	0.008876491535887553	0.00743077222591619	-0.000112162660924841
0.0007073294885762681	0.009686381933663666	-0.001186155470513369	-0.001503227700522831
0.005836265305326239	0.01424241591888918	-0.003608980726546271	-0.005971417162685387
0.005251120470224246	0.01092530814487082	-0.002380073867558309	-0.003808730885054672
0.00425405080513151	0.004884130278875232	-0.006844534766705123	-0.003393688273693306
0.004097819075803181	-0.001137829989970803	-0.008046495605849302	-0.00425108928097923
-0.0006829554723332712	-0.003228496285909215	-0.00898739283305054	-0.005594347105134548
-0.006362442296429762	-0.008656616006662565	-0.009682913740410347	-0.006700069517254484
-0.007554498335065125	-0.01183087637161368	-0.01391309573563716	-0.002320748561660578
-0.009164524941947295	-0.01688205278176711	-0.009953937709669135	-0.003074876519497778
-0.00655975285631781	-0.0123895157712946	-0.005604529681213403	-0.002356114164170258
-0.001808682848316373	-0.01017726477518719	-0.003115424202452868	0.002476256887532493
-0.00288266379977112	-0.006369705384484718	0.007332704532916989	0.007621870750775034
-0.006286319377819846	-0.0006966038454581584	0.01939379302000288	0.008901673708354776
-0.0057435420527871	0.002054938548419448	0.01988639945404773	0.01036568647646882
0.008169698833216586	0.005885602786750719	0.0195701988270555	0.008041200374275559
0.009694678636540765	0.008463501933128219	0.01751391117089447	0.004712844614587767
0.009694432264148269	0.0125291479413388	0.00919606199400741	-0.00257202740714307
0.01027137473658001	0.01770872449703855	0.004859322769608561	-0.002372933164309262
0.01440469902902362	0.01662525409907718	-0.0009596289501297044	-0.0004317220239929471
0.01231479633183029	0.01271530834482477	-0.003805740704850622	0.0003204509361715561
0.00323148570705225	0.009238331347597373	-0.006880110743481851	-0.002801749807182756
0.0004557465330811827	0.00625887518835784	-0.004523349463007779	-0.002992588156824837
-0.004860361670738579	-0.004587427767548406	-0.01218698038972906	-0.002680319929264508
-0.00942175574408944	-0.01141693893757426	-0.01257447455846224	-0.005374927255450961
-0.0164429376858162	-0.01180058493525597	-0.01441281074813147	-0.004821801962069511
-0.01760774343401809	-0.009054412520938086	-0.01558610608340182	-0.008138789421883794
-0.01188831139484951	-0.008762303781934747	-0.01005920059600598	-0.00357917008235945
-0.01021267759954419	-0.006732325306981464	-0.004074527622707288	0.0006944477822721375
-0.01048443751406245	0.00110760552527608	0.006142771480843992	0.007401987261180813
-0.008144296934118691	0.002460390042853218	0.007851828820146444	0.008015866209777405
-0.004267635513783652	0.007250035598073403	0.01571947791267567	0.01321524636964882
0.002295558226121903	0.01200049828652769	0.01285574194209663	0.007945867538054679
0.006173302214436928	0.01396667301850787	0.01451347015538511	0.007100279740308525
0.01333869786516451	0.0127924526778567	0.007748067809263469	-0.001729580316669346
0.01306650574973911	0.02063055047981532	0.004396162743140425	-0.001041785674989798
0.01261068087228	0.02136960757331436	-0.001334874054692	-0.004009055732101421
0.01035151804029416	0.02140346570198332	-0.006658602655244808	-0.006075660524518525
0.01173779607632378	0.02006304291545383	-0.007007846943427331	-0.003282222622492789
0.006959025729770102	0.01201034616901128	-0.01672160814109662	-0.005389328522719049
0.002040658774027066	0.002021249335176906	-0.0112218640355719	-0.004700359976258486
-0.002109917289482348	-0.002828575657491412	-0.002521167763357716	-0.00159787187738001
-0.0009289473188952222	-0.006585427850383267	0.005926130302098211	0.00116657433816713
-0.005384645332966926	-0.009379493401615625	0.01189242679035518	0.003516094139753304
-0.005030908066942911	-0.008730573788075268	0.01360978537490977	0.00398205863946601
0.0009657691160753955	-0.009378273911537094	0.01176940264921489	0.002082232862158502
-0.001979220003084586	-0.008792489523996951	0.007886394337867694	-0.002055715837598686
0.0004606563412245696	-0.00604722142241952	0.002746659861523747	-0.003570710605787016
0.005968705306526103	-0.00582649515872666	-0.007837050692875748	-0.006033061813982656
0.01310279940295811	-0.002775717697159344	-0.00816111993472538	-0.004764631272977229
0.01248270745033341	0.0008621131241671727	-0.009179826115100497	-0.006166999240354951
0.01572788058748995	-0.0002156849097224164	-0.01027425260656823	-0.005721345252609927
0.01762198175873543	0.005838491435850868	-0.01157608544321474	-0.005350500764307114
0.01436661444913044	0.003886861186372589	-0.01423316874604474	-0.008166949453330494
0.004758992604803452	0.001441928299491739	-0.01818482538996973	-0.007311685670497492
0.002069994804855497	-0.001807992187416103	-0.01812147369498934	-0.006169534088333272
-0.004660653773703258	-0.00759379051663332	-0.01291171174858086	-0.002909928057951349
-0.007214429509426063	-0.008428261485135259	-0.005304679668243617	0.002872697484141848
-0.01431288133943485	-0.02186858546564524	0.003431301621068755	0.007028339989763723
-0.01694113848667253	-0.02331957441988668	0.01182759284385095	0.01193953476568198
-0.01718108621224018	-0.0208031642866086	0.01815332264136277	0.01527582835461478
-0.01317527799676065	-0.01917282774340612	0.01734392490564136	0.009167424067825445
-0.006161570860151023	-0.008607388538094294	0.01287874705083212	0.003402059351425622
-0.006383170249405049	-0.004101280841187788	0.01201899740299255	0.002255603164059413
0.006113051191290639	0.004388506514687873	0.004687427395919447	0.0003995556692603864
0.002632268281509842	0.00924482477796507	-0.003632960092811976	0.0006509226349183972
0.006764981291486489	0.01153271307922568	-0.006766310692294255	-0.0008034970880102751
0.004457066608810849	0.01555714390731978	-0.01000331108831384	-0.001024727033440903
0.00747376985583923	0.01542189044521273	-0.00225677437567563	-0.001395921027134222
0.00901339799489756	0.01860678298091803	-0.00435714424213316	-0.004155619125536778
0.007567329527916019	0.02211302091135167	-0.01455539653985852	-0.003845572344199947
0.006633896359471037	0.01981903470667907	-0.01105372713517632	-0.004106997302670655
0.00264060182355073	0.01434215503187899	-0.01012680677702059	-0.001314961053225115
0.003016227333432564	0.006231646070707634	-0.01020228073357599	-0.002796531283997341
-0.002189250985306898	-0.002194971543590867	-0.002112731752573485	0.001416257974323798
-0.001089075123518829	-0.01113861209397052	0.008669194440702925	0.007210556557100064
-0.008013325852987004	-0.02371680346571537	0.01244705937911039	0.008344421030167842
-0.007092313927941687	-0.02701478449164323	0.01978196132696388	0.007810266913809365
-0.006246844547110001	-0.02507590964414977	0.01990146841955473	0.008597343284316937
-0.00247670389381395	-0.02116279498239514	0.02120231061359334	0.007576715317330687
-0.001298406618717569	-0.01550374353606713	0.009088221197487764	0.001293200234573093
0.001426674422922888	-0.01181874696163659	0.007094355527385306	0.0003572750717950628
0.005144113224556146	-0.00489711983199577	0.001651781391615769	0.001480284105152667
0.003278669316938706	-0.0007691040741254264	-0.003626510772599637	-0.002295385874890865
0.001185882144807524	-0.00170748428313407	-0.005414470920259298	-0.00190143252917543
-0.008060285488561154	-0.0002081692504920628	-0.006401976899238985	-0.004396073667251297
-0.007429906744808166	0.003308589749785105	-0.01099806800978058	-0.003316413141926081
-0.00489570981507468	0.006297776063318395	-0.0111118656673072	-0.00575966893824899
-0.009207100167910067	0.01286937440135783	-0.01219808495116089	-0.003647210161880891
-0.01079409728725541	0.007206347527173283	-0.01241596285152607	-0.002319064486545177
-0.01169568785251252	0.003180150504279756	-0.005621975899641951	-0.0002670608307644752
-0.01199388720485834	-0.003011672881890469	-0.002105796452103818	0.003325182556639105
-0.0111540490319531	-0.005874913134079624	0.005048134230925628	0.006783801646148445
-0.006011361236163769	-0.009281864424281021	0.01479959142432356	0.006602216131950815
-0.00385166211464616	-0.006228194873459393	0.02091699391959636	0.007115196820823486
-0.0005813905071050226	-0.001044807693079979	0.01748855018624647	0.007500351216243559
-0.001821660915689946	-0.0008874889932028619	0.01741990937759751	0.005256056069059506
0.0005245750111555073	0.000914492414263344	0.007448411461924887	-0.003425444048311954
0.0008620506701139505	0.005281958072387719	0.004794224210315595	-0.005046137535634687
0.006010859297334545	0.01200536565429556	-5.042314951475189e-05	-0.009529496316109779
0.009676064826342376	0.01468204561259101	-0.001568548934333513	-0.009933395326022115
0.009159647323460689	0.0127713071537141	-0.005056639368101409	-0.01149705808757233
0.009146668572272282	0.01385833837449423	-0.01047742013954479	-0.006078271869538021
0.01160686655753328	0.01444703766472387	-0.01025063793646984	-0.006095612707849106
0.01406027003442022	0.01135471521088912	-0.01502707961428822	-0.005949494989398645
0.01131102429134413	0.008708113724030665	-0.01647480432102209	-0.007827724416126168
0.005346862052223096	0.003383800719544027	-0.01739536247172916	-0.006037083166719712
0.002535192014544248	-0.001739042900405999	-0.01175007896894715	-0.001415484944827673
-0.001662448032620727	-0.007956316524375291	-0.002417717728526807	5.91434766149321e-05
-0.004242050149491713	-0.01199166935534273	0.0007852471282234867	0.009996020107231194
-0.009060286544747621	-0.00958671355321607	0.006977910663159452	0.008040046948520155
-0.007296431474042844	-0.01154704761981523	0.01386437095990083	0.006956209787778404
-0.007001316115536693	-0.007976105887292117	0.01274947355526008	0.005092254024395504
-0.005052263325710752	-0.001144057213974862	0.01701587892444096	0.003979859665146414
-0.002122295149047749	0.003970480926611537	0.01171529109514825	0.002800838839977226
-0.003377380257134205	0.00680083169190852	0.00465353223956262	0.0003490226000027141
-0.001208619148730653	0.003116715342853311	-0.001622615740805081	-0.004048099120165831
0.0008598439943582047	0.003938351347938425	-0.007450846691356753	-0.00121167757603021
0.006329069990435809	0.004894908899443988	-0.008358223727781852	-0.003665051351041583
0.008653240618981843	0.007019351274367253	-0.008544946387723929	-0.004966418660506821
0.009403545991874474	0.01342892623325479	-0.008829291435485376	-0.003022343395240372
0.01639451870846558	0.01232011173319863	-0.01147168999025148	-0.007131877901048982
0.009194482911443749	0.01329987264714041	-0.01240770377947427	-0.004865409406763091
0.006299965512583748	0.008294000396387025	-0.008729327288830319	-0.004845116550717593
-0.002657410029272131	-0.0007841101734855572	-0.01011675817467981	0.0008274107686053172
-0.01012023558542565	-0.01304139449360709	-0.004746162833243306	0.0003284105283204208
-0.01228190122027359	-0.01022711448131686	0.002152455772967002	0.004448776289023143
-0.01031785737408775	-0.01433583274661273	0.01441476818514941	0.004796079710955487
-0.01034647095114114	-0.01087676458524105	0.01682255166497568	0.01272657539856875
-0.005218731490459091	-0.006403740626203544	0.01576741281342375	0.01194001598489857
0.001515914792257642	0.0006257704806309412	0.01327823857084093	0.007750836755684291
0.0004395143206435954	0.004736412793252663	0.01074475512051456	-0.0002598166594484548
0.006336716190966451	0.009081252801921093	0.002615616816229253	0.002897544451278321
0.00738987919434379	0.007435951445925276	0.0006404411700842676	-0.001845470752064077
0.00857686662247592	0.009056992545610392	-0.00123780528780971	-0.002440016314980576
0.003374367853557254	0.01241130367419466	-0.003685249840987653	-0.003312982226138259
0.00534939766748746	0.0135198237082931	-0.003763136135220291	-0.001793433269628728
0.008220315795800097	0.01244310587626216	-0.02020150611279887	-0.003728066105841684
0.008655555759139798	0.01142740769005316	-0.01485255340651071	-0.005437190580340727
0.006601749916977025	0.007862898491791915	-0.01280889210432263	-0.002363612102123327
0.005374457874004672	-0.0008799249903731775	0.0008968038928959914	0.001020643182509423
0.004050599800369333	-0.0106870867820102	0.009221445414907782	0.004256684780275514
-0.007976038136480958	-0.02046427785151459	0.01540237429353989	0.01192438844708786
-0.002947894571153938	-0.0275125766973075	0.01405920324971997	0.008310616399299781
-0.009735182196083972	-0.02771134133230631	0.01408730515935092	0.005734076647487834
-0.008340153942627236	-0.0232258509001573	0.01201731714786085	0.001844820093037155
-0.007605045310225419	-0.01798274523429068	0.003690830160132837	-0.002532532690781893
-0.008304655186477656	-0.0114707291725841	-0.004648855813704176	-0.006389736962475506
-0.01155523522199099	-0.008077876130874625	-0.005300050950518309	-0.004106634252780614
-0.008825095997901636	-0.005670190281369812	-0.00885796176147224	-0.004701048783665437
-0.005400853086264376	-0.001472729537515157	-0.008717815147285871	-0.002861176608884745
-0.006225091876815693	0.004865839467355618	-0.006944365527953899	-0.003838100465310632
-0.002670522827340615	0.007092369325269823	-0.009131766555361466	-0.005529838805966251
0.0006596106924867014	0.00951077335864396	-0.007335703696181414	-0.008292683381510199
0.003155421705387495	0.009417826300492696	-0.01662907646139507	-0.00887190403704587
0.003676730934342894	0.01502318682788434	-0.0138416658807491	-0.005227435371502397
0.006967383567430141	0.01198971955734456	-0.009545103436577976	-0.00185375666147098
0.006236643050787602	0.006077875880452817	0.001491501824981465	0.002073071514719716
-0.0006328432174152931	0.003979926130995026	0.008180768109025309	0.007594903339024395
-0.004150846604026778	-0.001264127072267452	0.01373812811024076	0.008200488673368289
-0.00865582974150755	-0.01165584754258382	0.0175072931664542	0.001852003029263913
-0.002678647242783575	-0.01212449327662175	0.01704031284345757	0.007315597546791871
-0.003206997242516692	-0.0126371173789232	0.01383192717323464	0.006284070064941472
-0.001204599763841855	-0.01159589206137997	0.007369764518932903	0.003679449249375545
-0.000963303370436772	-0.006413004989438852	0.0008530997029655316	-0.0003720822266357582
-0.009107554328800253	-0.003641393960662253	-0.001201093226476359	-0.002294842700758234
-0.001637068582856453	0.0007659432749498743	-0.00522266400362739	-0.005326712803781888
0.002535981118789374	0.005613384008255764	-0.005195162875054738	-0.005712037075314129
0.001071914959725382	0.004573395546616724	-0.01019626362726683	-0.003192846202949629
0.004503567987400622	0.009375999133664619	-0.009982963882700025	-0.004909524122030196
0.0062020662741089	0.0151673313723324	-0.01489804843679511	-0.005566222608106214
0.007380757291413182	0.01560115803873972	-0.01277234364831437	-0.005417076881054872
0.003655893114719894	0.01678897956997875	-0.01070047884932381	-0.006973621158582852
0.004611436443213	0.01233534394714105	-0.001071549083209342	0.0004364103080335903
0.003897290780570245	0.002111357491327121	0.001273991860907729	0.0002324388555496271
-0.00407117929328994	-0.003814781784421958	0.006228251270844955	0.01097796095294061
-0.003769862261398389	-0.0045016311496683	0.01827254365606868	0.01337343879003402
-0.005944567667305179	-0.005331608618942766	0.01599138216931387	0.0136153305688476
-0.006572486537174145	-0.008090246787171417	0.01463623003870747	0.008209595936311003
-0.0003514316103969635	-0.004769335874731846	0.01229753789621294	0.003424715803818261
0.007357121960895512	0.005381934673917533	0.006629459058838801	0.001727784135891235
0.01010740063957441	0.005860176438623416	0.003728790095361616	0.000506517277656253
0.007078321010347161	0.008945636609307039	0.001757465675349233	-0.004941819947318545
0.01296712550265996	0.01024596005385347	-0.001965454458228924	-0.002335483906763637
0.007749929724699373	0.007691891824109511	-0.008212298795492914	-0.00060461446740607
0.01314118983649976	0.01105618625746153	-0.007695245882756318	-0.005743716186724607
0.01458920377517619	0.01613893684315645	-0.009928236404280807	-0.004250495763055924
0.01674279074312753	0.01317881832841009	-0.01460546140909142	-0.007806632358756974
0.01240964661450035	0.01778126484381289	-0.01518652574456329	-0.006962922451726408
0.007341658912554368	0.01161982695139582	-0.01080965593766524	-0.005190714627917165
0.009798111072156947	0.005351316205897742	-0.002331040292422599	-0.001903814221111034
0.005737287686420693	0.00247617734503666	0.002924043804214603	-5.358792945605132e-05
-0.003003244427327049	-0.01334041745806711	0.01043657563688647	0.004766028806352438
-0.01412185178465711	-0.01930104993139755	0.01231726470375676	0.01268627471568123
-0.01826851906795394	-0.02897369669149746	0.01555164827633531	0.009463934652368644
-0.0155671223250954	-0.03083338008399779	0.01279884739006389	0.008530778100000063
-0.009889050973167749	-0.02971866561772441	0.009978797816810511	0.006902835300505535
-0.007376591392743352	-0.02632410024114604	0.007545554282811398	0.0009929756509906114
-0.008441833022829245	-0.02840308947740866	4.663644443576458e-05	-0.004446186624877513
-0.004576456959744338	-0.02481622350663048	-0.001026600571066163	-0.003687124141996762
-0.006188574311458757	-0.0137028465179515	-0.007820167816825018	-0.007120911091652621
-0.005141051555546083	-0.00618067243973341	-0.009985828817305689	-0.00661184028359336
-0.0003940979304347421	2.372953817293494e-05	-0.007984862683262208	-0.004527248104504378
-0.002763296294269111	0.008811964854198466	-0.01068383121110182	-0.009385181683351729
-0.002015267542750059	0.007401866437260493	0.002067932642280461	-0.008580547667092179
-0.004473389088514035	0.01501932817670956	-0.004679287703640005	-0.002696210703636577
-0.005551520770667917	0.01115623281443081	-0.009207652772443948	-0.003357538638679986
-0.01049966039321122	0.005401768843981481	-0.007689061686556731	-0.004181723317113134
-0.009670481797974429	-0.003255707149603112	-0.01083929336969381	-0.007132589587289653
-0.01590927495851204	-0.006241267090287377	-0.01213972171944398	-0.006845045743956216
-0.01827212251209531	-0.006678455254699255	-0.01212698464515853	-0.001795459310760947
-0.01545458442386267	-0.01144543121603226	-0.00263427487052958	-0.001357995285980803
-0.01155530043694765	-0.00877107250219044	-0.0004097084937002461	0.0044351812527494
-0.007501026119618579	-0.007305441496826814	0.00836132150939255	0.005255065565821059
-0.002760826591059824	-0.00447723757389074	0.01527409364156031	0.01290187321358229
0.006988961398555758	0.001778224733837134	0.01669880982160271	0.009045502232576986
0.01104699415376784	0.0119688382948109	0.02024893802866495	0.0100448508115165
0.01373091079734038	0.01142230606544497	0.01247617292298239	0.006484460806257911
0.01954202852360914	0.01800682937805487	0.007397392303938571	0.004062323203117264
0.01633658955611453	0.01705574228963883	0.004754881824761272	-0.0002490934991981716
0.01847665279486183	0.02500705675344263	-0.004042890467432013	-0.00327494895430616
0.0190152425426143	0.02520915636653709	-0.002302129517457608	-0.0009718253904217042
0.0191169190019949	0.02966028359200132	-0.007476773844192167	-0.003310890854989203
0.01822664716351697	0.02315938736401795	-0.006242810584065522	0.0004957759276108541
0.0102974246364858	0.01694982331290415	-0.008029348296342434	-0.004609018618972313
0.000638834736686845	0.007076785709367472	-0.00911768022414451	-0.004391624043402021
-0.007550321050419519	-0.003183796511818998	-0.01016279597018654	-0.007936639850567452
-0.01041158668312109	-0.004805293145655646	-0.007935585077552836	-0.00286107310418443
-0.009446999616456094	-0.005582258761867711	-0.006785645968427888	-0.001307910488523012
-0.00540057636291083	-0.009289354174607529	-0.001984672660702257	0.0002843516127456515
-0.007026910995908414	-0.007626391075772422	0.008799806455894921	0.008958042219211069
-0.008014366028337641	-0.008486917722504974	0.01164411444843507	0.01199724259299331
-0.005457703326742907	-0.001786991630496005	0.01747748539854195	0.008456881065505633
-0.002936909221665158	0.0003643435977563204	0.01619835765398994	0.009689008960369996
0.002245101984053383	0.0033946616233202	0.01341919656190331	0.003655742223519271
0.003559645641728617	0.01026583325980933	0.004517901808972901	-0.001062824570101226
0.004991460944740953	0.005404173885643176	0.002592452791529096	0.001548868230743348
0.00486531203355261	0.008670451002996108	-0.002457563109010626	0.006230755743716227
0.001327621227302334	0.005509309326345545	-0.01072023283191509	0.004765055292307649
0.0002340349952980545	0.001608833513787545	-0.008922302270672878	-0.0001265144388338142
0.003118874204685149	-0.0027630433761009	-0.005148461101361123	-0.001051609451953418
-0.0004205622988449758	0.0008617835396002107	-0.00842167019481666	-0.003570432389582977
-0.003668310193076043	-0.007507127839733756	-0.009248602534310346	-0.006718496591559591
-0.002124919971042884	-0.01209080030755681	-0.01369293629952234	-0.008422946786962751
-0.003870518998742321	-0.016074935449791	-0.01262189210269839	-0.001925279670646734
-0.00549038633562237	-0.01371516918769859	-0.004051534580622159	-0.003501470467449478
-0.003234359550767758	-0.009698326123235464	-0.003812057342840251	0.002224135606319322
-0.007877041607058446	-0.008500278356431214	0.007523849904064924	0.00255380076227342
0.00230872971456476	-0.01026556573708507	0.01332376439108152	0.004009152634903194
0.0002893442326248903	-0.006974380526747801	0.01831342512386877	0.004377418061098489
-0.002810607695602381	0.001482177239944152	0.0155019689733658	0.006416867870121312
0.002536333536931924	-0.002012716078796783	0.01256782768868456	0.003130942894259353
0.002864485194663787	0.002995017564122525	0.008868980458009823	-0.001321811801314903
0.003603788666737691	0.001706774625815279	0.002262041926016919	-0.0006665252928728194
0.008169040318799264	0.01009429445877233	0.0004067043711228334	-0.002856050936841085
0.004077978036447641	0.01112837465153334	-0.004635152554684562	-0.00242053665409562
0.004186771853600023	0.01079489660603198	-0.01725852425464946	-0.00843038950289529
0.001515361479941633	0.007788203415928484	-0.009671168931936761	-0.004405171109743557
-0.002052858660990468	0.001852720959916228	-0.002945369892475124	-0.001035151571755103
-0.006845186280896457	-0.006697102480515077	0.00758247295560734	0.00758920721482378
-0.01066068917003541	-0.0122416628874141	0.01062973436945476	0.00254595103466121
-0.0068582892042388	-0.01397288895522728	0.01189891245731614	0.001312314111005463
-0.01016784553265257	-0.01291338379700181	0.007972256641065014	-0.001267175364898807
-0.01121187856335136	-0.01871644770101201	0.002708107503488429	-0.002915916126445964
-0.004555671680717143	-0.01204922915855724	-0.002104840029185531	-0.003826567188674138
0.0003939636803635119	-0.004404932584325371	-0.002942365208846097	0.0001281226939480111
0.002272894009690795	0.0008695092399182129	-0.006340648185339851	-0.006957328535552826
0.008842480070068643	0.001662500664645525	-0.01406004941214196	-0.009658637927441007
0.007293188212975829	0.006097507612317783	-0.01589909614156947	-0.004621714181110296
0.008327627750464328	0.00613062456118575	-0.01144126234087259	-0.007493748859408631
0.009491184512434803	0.006632012925876963	-0.01470744600698057	-0.009602746476860628
0.01151111178090113	0.007276925697446967	-0.01649560029035658	-0.01256914579239844
0.01155484787368691	0.007725653979138474	-0.01703339792414869	-0.0096795712926215
0.009847066782801011	0.007654101200214487	-0.01031461239908024	-0.004057174841521854
0.003392910971551011	0.00427923484799657	-0.00591395438161182	-0.006418449555531952
-0.0002026797744777762	-0.002199176832608455	0.003114867031897563	0.001538167423309313
-0.002925333894828823	-0.006416292356884908	0.0122823647261772	0.006047346284489831
-0.00944944735140819	-0.01729740260050845	0.01798762964583706	0.007180561715703728
-0.01196584133620671	-0.01923821837950378	0.01962338010092951	0.007916038190677953
-0.01326909647281065	-0.02026782329720474	0.01682123531891971	0.006222037347938765
-0.006767832575482549	-0.01370064698072	0.009854587115324278	7.987296723183741e-05
-0.003704279531329454	-0.009357598914850869	0.004429917527170158	-0.001423537152583919
-0.0004521767473505521	-0.003400872873822365	0.001751685083139962	-0.0005258122508808589
-0.002192245790671545	0.003781247576550416	-0.0001941428744203729	-0.0005366365448848009
0.000588033329672746	0.009776982213728386	-0.00597886706658705	0.001440794024038763
0.002305735529120196	0.01334785361334903	-0.007739643831031245	0.0004315625526201002
0.004324147569264612	0.01474964618358575	-0.007111462341195867	-0.001616754078384156
0.001608634890686305	0.01941316317253774	-0.01335381918542464	-0.004209563727093661
0.005411640311690472	0.02340447612101612	-0.01500346849623187	-0.004833713403676357
0.004864839528101649	0.02233857815179216	-0.01442799554903841	-0.002508112577508976
0.00738925141697509	0.0200945229182496	-0.008522929341913534	-0.0001900326806176981
0.003807848827124016	0.01731131682633212	-0.002744224381927465	0.006835113399491118
-0.001456828734652051	0.009724383326896248	0.003350020092742937	0.007902751195981248
-0.006788173079561565	-0.003973753800843612	0.01357574866646123	0.01112289785890451
-0.007977909950353254	-0.007085660744711405	0.02014181636004092	0.01269288116463686
-0.006217317128649989	-0.01041900172501502	0.01987601232710653	0.01233822725132838
-0.001790245111118569	-0.0124085324438963	0.0206115813151637	0.007676572769061565
-0.005144089238907444	-0.01509632415223616	0.01008075876819978	0.00532079101291358
-0.001641998213297487	-0.00679397667787363	0.006226304336377899	0.003030754344722178
0.002676020316096946	-0.003926648663491744	-0.0004280634940833518	-0.001590126211824455
0.002795560652687696	-0.003368638306313437	0.0005825996114688346	0.0003720303083419948
0.004652300751272705	-0.00290393683550344	-0.006787143223146342	0.001944925711745145
0.001293220063960935	-0.0005096854462014949	-0.004597862724705012	-0.0006772180231538681
0.0055701656295837	0.002360049197541745	-0.008703856570346195	-0.004169213566660449
0.008393407149402846	0.005257641754456524	-0.0102829522375255	-0.01098824580257758
0.00582595675374553	0.008578605035323364	-0.01294305340654885	-0.005177352620092128
0.004885378682058878	0.007148365035126435	-0.008260014154527344	-0.004341518204503786
0.004748854018448443	0.001512217679810238	-0.007807894810822526	-0.003073701091162587
0.00510738412660205	0.001951800728529015	-0.005560039095812001	0.0007554256112799222
-0.002086803031539948	-0.00527256635441422	0.004118143481523739	0.002346051215386071
-0.01459266182092099	-0.01527437896339151	0.01188730757850115	0.006295636812356329
-0.01409416815828332	-0.01656814900906657	0.01636512010740438	0.0133007340959015
-0.008653702728064433	-0.01879758307528725	0.01935733901950572	0.007220874877557091
-0.01063966793583381	-0.01235833343591327	0.02014225634759975	0.004457168579889165
-0.008244547302796499	-0.009082079254312904	0.01173959477682786	-0.002464354468661104
-0.002350198299956129	-0.0008909418363382529	0.002408441801620858	-0.00240937738624387
0.0002363003926671231	0.001245805646728411	-0.00275543750462676	-0.003468232566417693
-0.001749200997799933	0.008386474470974355	-0.003227344391920692	-0.004827302490469509
0.003942760879622349	0.008920367127215341	-0.006522686079779049	-0.00230162631526761
0.001697963395253656	0.008978297562426	-0.01084446016505368	-0.003077479073392259
0.005598775397805203	0.01261301764448464	-0.01089845086194466	-0.0007188746302538661
0.007699471427479076	0.01645162914397314	-0.01054281031932115	-0.006477004067175786
0.01406232977361497	0.01707491441684575	-0.01664271723904135	-0.004347464187089971
0.008568280340695204	0.01793951982371586	-0.01624965622105988	-0.004759616530517855
0.01127599567540967	0.01531852994263743	-0.008640282162935064	-0.00366690394052406
0.004669363755625595	0.004346570496191525	-0.006264367648172148	-0.002120725214473512
-0.003398547591170774	-0.007989695055102049	0.004820404220155723	0.002598890079959402
-0.01089641114681733	-0.01435246052097885	0.008203079821588221	0.005416259308666109
-0.01079438483602187	-0.02147612386550415	0.01773491346563899	0.007595865546485711
-0.00982597495640884	-0.01843839381590243	0.01480889383725634	0.008641494426418915
-0.003600195595194211	-0.01765019540962929	0.0170416720934555	0.006077373475061727
-0.00286242262121543	-0.01012915266289264	0.009552449974509592	0.007166909742682728
0.001614958508698174	-0.006297030421958279	0.007353868140805101	-0.001624445082343483
0.003210224650084729	-0.0004901454736647142	0.0007945221614300479	0.0008489603472761267
0.006492482794742291	0.003992402397384813	-0.00215796425336273	-0.004944760456279273
0.006982958567153274	0.007050384905942041	-0.005449806261950976	-0.006224612112719615
0.0007637206563342363	0.007185249609794606	-0.01161529806312982	-0.004361948331188842
-0.004652056033961188	0.004501457578687529	-0.01097579225254971	-0.005787136454007857
-0.001866078513120633	0.01095300706239007	-0.01349033379590246	-0.005836692558296764
0.006191185872510302	0.01796315789702888	-0.01503323996898556	-0.006856342649076223
0.006486535037248678	0.0174349070951797	-0.01314281903597632	-0.006665838415216496
0.002621510116808945	0.01205908526086685	-0.01083403989795976	-0.001789902436275109
0.003278899732503112	0.00510054734046275	-0.007197008894959934	-6.867888695101076e-05
0.003321110889899212	0.001825544474949953	0.006549867545601142	0.004351024352489572
-0.003102155056540371	-0.007316927463774252	0.01175786139915842	0.007956839726035125
-0.007597431715090646	-0.008116323355677994	0.01533798432890606	0.007770958802033982
-0.008876331277370062	-0.01064288006212114	0.01360417975134535	0.007326832217417673
-0.01107630378932171	-0.006642583748919097	0.01947632339721416	0.004529356843264342
0.0008722961460107728	-0.001079975895651214	0.007519971155410805	0.0008577530192956728
-0.0003801615221453093	0.0009407396779079205	0.006717638817404446	-0.007218563817090098
0.001823410595132984	0.003154429655065651	0.002534431386269198	-0.0007616229453313206
0.00260809663909004	0.0004479189133608221	-0.002622073422872135	-0.003348732290818368
0.005095157450816782	0.005023415075497538	-0.00278772496864915	-0.0007216322107669238
0.007197680328170616	0.002117797852247056	-0.005274772737822605	-0.008322953674757803
0.01044767832061031	0.0003774460317241031	-0.007960175709232988	-0.003223649212442891
0.01185766084907726	0.005205317858779852	-0.0128810806066105	-0.003435946530223701
0.01117408896271866	0.004097795845584704	-0.01568052247717607	-0.01011287977518302
0.01055479656172946	0.0004446971648881375	-0.01623803454717397	-0.009851965670789704
0.002000645124730882	0.0002466228841746676	-0.01123714046236665	-0.00533809976721896
-0.0008245038627448847	-0.006754960445363486	-0.007188869311808895	-0.001899628159861725
-0.007759521550800294	-0.01153171195042764	-0.000247408582137432	0.005513179436893047
-0.009016213685069314	-0.01572780328243211	0.01151133113795085	0.00670520543231955
-0.0137194447220048	-0.02060369011319177	0.0168827564325593	0.008314479857248556
-0.01570465702082625	-0.02142335074105986	0.01970792805804972	0.006300846902111649
-0.01248302948181076	-0.02094156160560014	0.01507709838672191	0.005586828072589156
-0.01258294434048571	-0.01599013608263329	0.006976263559126383	0.0007760527634645208
-0.01105335963198511	-0.01121672829837349	-0.0018547635450754	0.001766453801066542
-0.005436205643585324	-0.004030067497269517	-0.001249368762412212	0.0001978911724047051
-0.003130504220262178	0.002809236305050544	-0.005579995709152089	-0.003910551157142414
-0.002630820517359828	0.004125894586680542	-0.005885395112883282	-0.0024039703860524
0.0004930448113037121	0.01256062781907816	-0.003903993677314165	0.0002940312776577681
-0.0002097686138205077	0.01378489659368385	-0.008385469177055377	-0.001598289679403603
-0.00112396701439561	0.02035065501770145	-0.00623954060351011	-0.00579859023430838
0.004388757054641419	0.026282811438951	-0.01344017876860784	-0.008958430395747554
0.008067200713254404	0.02301263851866105	-0.01628417600688487	-0.009776039950872008
0.006486680265880665	0.02221784927182646	-0.01170320982802339	-0.005526851363375055
0.005080485009084222	0.01468971843030487	-0.006112970653132955	-0.003548104916290698
0.002047155085403054	0.003028081283974885	0.006022072189606048	0.00379935145776789
-2.214178719002735e-05	0.001851139716991868	0.0117054162968574	0.009645458863302292
-0.00828446555509922	-0.007794384405484534	0.01701160984695265	0.01308323989937884
-0.01096733192596384	-0.01150448090652723	0.02075892666471654	0.01367929951102611
-0.005699794051557632	-0.01000216292383776	0.01719941479434615	0.009109854319271802
-0.003244458884538614	-0.01364913400615658	0.01107212960687759	0.00493010160107137
0.001470442909288978	-0.008886921795951424	0.007532434378520953	0.003396784791512018
0.00279119499728577	-0.005332425756906945	0.002719963771054967	-0.0005787906235552678
0.008308006131125862	-0.004824471726643752	-0.005773925662570022	-0.002590631198610619
0.008705393566309921	0.003074523874311467	-0.008153146682899839	-0.003492639082377174
0.009474204530679148	0.004190933075272086	-0.01494293038661395	-0.008132829241241011
0.01224388553117366	0.005594551439934522	-0.01472310858831297	-0.006311003330246132
0.01176511385785906	0.002218519333271392	-0.01125921917221101	-0.004613548196748492
0.01323666214983976	0.005328396723216441	-0.007655824910280632	-0.001689193703733201
0.009277449926940297	0.008174961354111217	0.002967458226147232	0.00387742278306868
0.004412937882454927	0.001320092779545026	0.007688831615692567	0.005671675593053932
0.005384043989987122	0.001401258547739485	0.006726520076548787	0.007615656688625725
0.00340544426477405	-0.003262308907913894	0.01494013341673621	0.01043473333218959
-0.0009112288321440067	-0.01212095997995565	0.01230677966483849	0.006864635010969412
-0.004881620100221461	-0.01702820923642404	0.01177133791844967	0.009323945354385662
-0.005885649126566787	-0.02027039692084576	0.001183207977281741	0.0001070806602939487
-0.01252108339507191	-0.01526368485415495	0.002704554167100314	-0.003108138097160514
-0.01266787793266209	-0.01220680332135146	-0.002906796461212891	-0.00294066895597903
-0.006325799655984645	-0.006053902178391852	-0.004724934991084133	-0.004275612583764529
-0.005922122328343167	0.0004072865629766985	-0.01039092020487516	-0.004188426187626194
-0.0008075379018852288	0.00617313247284333	-0.009161742597060636	-0.006057350357761684
0.00102471738106488	0.008191147265656352	-0.007648248405618857	-0.003340615413795921
0.002715874787920265	0.01046509271943798	-0.01484422659227954	-0.009633820909119399
0.004252707640237312	0.0138471876983628	-0.01744335235010561	-0.008751943057450081
0.007658609387781935	0.01608233118334784	-0.01200592354796411	-0.003950165730563051
0.004618971183723761	0.01376997015842916	-0.004845911778753674	0.0009699059245181549
0.008724096365371633	0.01550795554198599	0.002195434087558381	0.001162357052164451
0.008615060188842887	0.01517620405271924	0.01035616198762733	0.004200714050154488
0.004972488006796198	0.01113932697745198	0.01685393044098222	0.00929693110132717
-5.666120117665744e-05	0.00313779747151276	0.01317904481995076	0.009144845152940357
-0.004052221733745629	-0.004311861520195214	0.01565069749779362	0.006778201816583664
-0.0114266263398337	-0.01259918038360208	0.01249590549438402	0.001623133544052048
-0.01452565022894177	-0.01850176897589711	0.007192710212273804	0.002100487016135031
-0.009626404193081433	-0.01535971986795121	4.422693168774658e-05	-0.001540121485985004
-0.009995093914779591	-0.0109121247852321	-0.0002081703939212444	-0.001403142046866731
0.003238170362852176	-0.001744418481788647	-0.008103435953960745	-0.002264716950526786
0.004725677675921038	-0.002555993708821146	-0.003123797657751987	-0.007339262125526659
0.00704553933344979	0.0007066651324201338	-0.008059159528559109	-0.004196606929139908
0.008276786284371486	0.00344252849613278	-0.009409598915585267	-0.007494486932964597
0.006668299805507067	0.003987662996645499	-0.01652982047762509	-0.006295331015953274
0.005099034622267098	0.002739772280197812	-0.01247784733129164	-0.008649602287380289
0.004761734390788055	0.00799345354258235	-0.01001587500842245	-0.005913587793208122
0.005138468929868873	0.008381239981547099	-0.006358423934871425	0.001709863895846732
0.009197577587052625	0.005784724869786018	0.001315634868537128	0.004851868738534486
0.003610409190647447	0.004002061453792323	0.004184621081627096	0.005569469610763106
0.003438635781603449	0.005174371686314991	0.01689653438433614	0.009298122662059372
-0.007403260050814789	-0.003795066219310885	0.01446178219789874	0.009244250195720879
-0.01612605224683001	-0.00807673497341792	0.01992821564598892	0.01011442612692429
-0.01995818850317118	-0.01585514827836491	0.01193296616084017	0.003668635492503011
-0.01935334256620138	-0.01542926596286453	0.00537434661531114	0.002850318085026108
-0.01701618582970527	-0.01245360122607554	0.005247873625446729	-0.002446654517561341
-0.01279724249925937	-0.007714392665665453	-0.002122893918590663	-0.00153774809083916
-0.008999335119102536	-0.00104155949229905	-0.009138796694056688	-0.001826581959000094
-0.002838214712102662	0.005802108378519736	-0.00346262722717976	-0.003164285829280436
0.001001890056596782	0.006838985067789146	-0.005952690284315288	-0.004009174705472154
0.002071115270206645	0.01303070954451089	-0.00625233826594219	-0.00480526633754227
0.007225511509912801	0.01420359704222447	-0.008196364983351899	-0.007186428853320041
0.01154688615250255	0.01329430063635408	-0.0123224947716979	-0.007120816732190273
0.01022679917944396	0.01600012218370204	-0.01396331971665369	-0.006199446595026815
0.01219367843249259	0.01920808392158213	-0.00719075095783112	-0.001173734141478588
0.01126331754526043	0.01994903314502884	0.001395072453199711	-0.001446717853769302
0.01075458317713135	0.01093060255733319	0.009576609053694788	0.005756123951196027
0.008771734226395966	0.002887024603180552	0.01318047912449583	0.006042640593673265
0.001500595964814162	-0.007401206040254485	0.01896496156383522	0.009283765266185632
-0.006184754934149182	-0.01620602593421677	0.01623937633316072	0.006908642747216932
-0.008004706300489292	-0.0213141163000438	0.009115316643615345	0.001541235906018729
-0.009272540517911276	-0.02649783970227444	0.004417469510791206	-0.001355805503256177
-0.005856792614963242	-0.02160035379925816	0.001891423623005994	-0.002494326021821775
-0.003544776740275698	-0.01747355770977475	-0.002811581903161508	-0.00177524435608009
-0.001041313773838737	-0.01272638053824203	-0.006802046912428064	-0.003850114300940866
-0.001028676902122181	-0.007758326665381603	-0.00892281200964587	-0.008637371891885591
0.005123309147765529	-0.000179846342818002	-0.004762952176759263	-0.007018728838957533
0.005042158354196749	0.006685183153513163	-0.009186519940155576	-0.006025383459870852
0.00269980000502918	0.007916154922935775	-0.015616503957107	-0.006780498428317258
0.002866591806912805	0.009775597077450198	-0.01026185992599389	-0.004982750116504869
0.007232737855264374	0.01360226428969739	-0.009527557297218424	-0.004813350993097979
0.009348646159523053	0.01380319646160571	-0.006305931763260375	-0.00123497155319121
-0.003124718020610497	-0.002374411576770756	0.002213743300579506	0.005128210952316921
-0.0005338880086630327	-0.002915036228405255	0.008308803530364931	0.00757195275958963
0.0007162139879279936	0.002958185580152793	0.01461969556712829	0.01313863320231608
-0.001214960236822765	0.002375677389415941	0.02095152558831919	0.009270526779160201
-0.0007836010061682261	0.006453036426550554	0.01721362423420877	0.01183792481541161
0.004717964600357354	0.01172356958934444	0.0131914409138925	0.00767395576581242
0.003747269683306798	0.01123091838351959	0.004237436989791147	0.001854860976381607
0.0002354315623052311	0.003058208927240452	0.002560227450973	0.000958250759553739
0.000382796804567395	0.0009150817707201361	-0.002904472384358465	-0.004093183201639982
0.0007296659585413764	-0.008185456531246464	-0.009322524755793843	-0.001917163827441939
-0.007590714662785589	-0.02041336630652116	-0.008809939451061613	-0.00131667001769997
-0.01393101406922711	-0.02413456210942825	-0.01117788358433669	-0.003843920948607958
-0.01666492071499608	-0.02455117475986198	-0.01144314530685859	-0.004645697176405541
-0.01932195335403775	-0.02362097267649092	-0.01678573372752722	-0.008073726470470782
-0.009848711939153437	-0.01275811195438335	-0.01453524709650482	-0.009769412495691866
0.002209818396226736	-0.004648453244106525	-0.01248165866887537	-0.00425330817976164
-0.002713806483452758	0.003026179665853519	-0.007407581043721331	-0.003999670616747853
-0.0004624527820297587	0.009540418662859283	0.001564011604955231	0.002793935964865925
-0.003976841031090868	0.01257799374138783	0.009897799670030983	0.001615792321733317
-0.0007388680949611452	0.01019749679064758	0.01027152658066842	0.01012042874317242
-0.0008561819694124521	0.008419691394253387	0.01851050906542653	0.009773192664610034
-0.0006471991257229124	0.008219639501518725	0.01678316807736683	0.01013029398533294
0.00349699159027357	0.01205532747691867	0.01164035319982051	0.002652539210555886
0.008965902856812527	0.01533565889692492	0.009465772478550492	-0.0003161943298747842
0.01274538251453246	0.009417487812289335	0.003176500450744267	-0.001601980743141363
-0.0002304796788367308	0.004605291147240691	-0.002090719036909782	-0.002018822136929332
-0.00325144496125884	-0.006580022590485827	-0.00463937473058447	-0.001066592531032057
-0.005244912345480566	-0.01069436762266825	-0.006198976159755522	-0.002683562859262799
-0.007881905022575693	-0.01953511622180795	-0.007316128647369953	-0.002807920176135031
-0.004062343972205361	-0.01902306050245845	-0.009555133093421941	-0.004250009433826914
0.0006299923707172897	-0.01226805772999034	-0.01323704872708667	-0.007254792928328285
0.002579019335953175	-0.00867697775716173	-0.01730739559732944	-0.006641886040381634
0.005661405267451905	-0.002483461805590685	-0.0136206633901535	-0.002907145855923801
0.008590950475909027	0.002813925741276083	-0.006871501067897694	-0.003631997009098385
0.01067360471244557	0.006292029213409512	-0.001493876919121507	0.001360970170804089
0.007861056484096404	0.00540670370841118	0.007288812388713073	0.01088978871107701
0.006246221155389706	0.01549614927748689	0.01476648790326007	0.01150359708960403
0.007425383121035832	0.01648748802960489	0.0196453849749379	0.008679420384978534
0.006296774031271138	0.01848071066075911	0.02127598751632317	0.01141548857948404
0.006503727468583149	0.01693026284435134	0.01440281928978571	0.008067355691744075
0.005055363821461927	0.01756155632179743	0.009461483911527447	0.005128172055982938
0.002707929064306923	0.01215641822144917	0.001683851072003374	0.0004412624928602498
0.003242719326719024	0.01461275515072124	-0.005417327886053012	-0.003574117556391978
0.0004983361249662766	0.001787706831938973	-0.007890056631781914	-0.003099010382857125
0.0006327466668600973	-0.003689835819735486	-0.007569068017262339	-0.008250779956132395
-0.004021705403995241	-0.009405820083355469	-0.007864814790100441	-0.01028582737628615
-0.00917033882606297	-0.0107969374569528	-0.01046915620330527	-0.007056786237558194
-0.006181041133609606	-0.008212369755468405	-0.0134993179044598	-0.006290583690689529
0.0008049174433384566	-0.003831512371249961	-0.01527994481818579	-0.01041362995196397
0.002534590459905854	0.001313183774218297	-0.01087672165548435	-0.007324719681120106
0.002316924039052964	0.006515038965004545	-0.008831315809213132	-0.005671518158199113
0.007859580450269622	0.004484504375750995	-0.004104410871892498	-0.001979413065522571
0.0109821906923889	0.003296947926201815	0.003005572306744135	0.002704157580020743
-0.01041330429136726	-0.008294009151157732	0.008706929233677734	0.006681193967908057
-0.00144242681525969	-0.00669707553925344	0.01711961189753072	0.005658447299377379
0.003211539365235458	-0.005492722964963649	0.01671557262779057	0.006785059729936399
0.008133435100145549	-0.001229502482837961	0.01381078340194616	0.002287730519628188
0.01861996018752797	0.004536918594033382	0.01207140154037032	0.003001957700790087
0.01629707728219011	0.007211786301839601	0.003773240836177377	0.001357873064071279
0.00928814513136964	0.009733664984741349	0.001161343419345449	0.001056066852130614
0.00632089263537515	0.005805560058413011	-0.0007943134350516827	-0.002221527168596986
-0.002332620236776845	-0.0003913967682429037	-0.004405708724690822	-0.004319678968568252
-0.008818692732891261	0.0006501640116632505	-0.00875625429179999	5.131317363941783e-08
-0.01428859773144819	-0.004786318209168808	-0.01006620836007094	-0.001322173926028548
-0.01539135446135534	-0.01180706530944937	-0.01361589635912546	-0.007921379649376689
-0.01520950051544424	-0.01443258150817254	-0.01574355549857201	-0.008420116049627913
-0.01161076493602778	-0.009241224775242399	-0.01287719130427459	-0.006252871765885738
-0.005878793408559162	-0.005232347092953877	-0.01084073573749817	-0.001172162181874972
-0.004517364335797101	-0.006287965718753622	-0.005704821453349999	0.002567749589417649
-0.0008465479068955672	-0.003120419642138074	0.001731701070900807	0.003659330277241192
0.001695742201072787	-0.002088119381814393	0.01428850457061986	0.009178371052622713
0.004619488540583398	0.001281563901557352	0.01861473149874858	0.009970870108952113
0.003154282882401194	-0.001991403008273768	0.01697466088469316	0.004294601683150318
0.005404306869950882	0.001469362420035691	0.01184774093368457	0.002274001238250557
0.005611286174158134	0.005747222702112796	0.005286030082248296	-0.0004852001543182947
0.005930780578957814	0.006561025211810582	0.0006122305656588536	-0.001865367084583211
-0.001127680973910969	0.005376582294521722	0.0006135771772171746	-0.006247881696289404
-0.001467721353216098	0.004196279573508961	-0.005596907190426991	-0.001376043069587171
-0.004051600257988808	0.005032564500371115	-0.006546439558905417	-0.002579916778694339
-0.007783710854468399	-0.004993590257211479	-0.01441667650795712	-0.002593033524863073
-0.01458897027993912	-0.008650634876888995	-0.01223147079761109	-0.006261636878979484
-0.01189257793306997	-0.01340840905955975	-0.01473453361115896	-0.002477375634432886
-0.01367459059573124	-0.01221276085752238	-0.00743173122724856	-0.002787182609760915
-0.009980209316895349	-0.01389021632795943	0.0003161561209605823	0.001446549929898202
-0.01312112629531946	-0.006181527247723719	0.004930546700157885	0.006183296139589738
-0.006913400444963267	-0.0007761303457946809	0.01575647712866842	0.009000889518280561
0.001041727399439478	-0.0009687174863524328	0.01739841074016482	0.01537570976514134
0.004257068488956491	0.002613520311847756	0.01622412095347421	0.01374223267421573
0.001544108462255715	0.003978592007656994	0.01619926063414705	0.007673066379266094
0.002731189945564472	0.005604301263597713	0.009433778168730041	0.001650890958991193
0.009927462529182647	0.01417367813383571	0.003273413647731619	-0.001347408792974205
0.01013068632099788	0.01249967419131694	0.003639934972863724	-0.003226033144656246
0.01051831357283496	0.01522824639532053	-0.005998216754908236	-0.003573531705963425
0.01386251361578478	0.0202974678078484	-0.007167037644064098	-0.004250200195187934
0.006824363173063287	0.01311521439283339	-0.00856522893343515	-0.003075611150704658
0.001099203674914945	0.001339811146037066	-0.01006746855886156	-0.004999162760551095
0.0009335308517633255	-0.005692427034009105	-0.007429649906340439	-0.002273018800410976
-0.005828345098444856	-0.009539142374039399	-0.01486708584893085	-0.007891755163510896
-0.009404081965808969	-0.01204237071359953	-0.01020598839408981	-0.007365127707287226
-0.01251299309776588	-0.01563677055647447	-0.007933680738041828	-0.002857398801164235
-0.01477033600152309	-0.01498915086637431	3.26904355404157e-05	-0.0001573231321300104
-0.00717381435149077	-0.009270074754179071	0.005616115262613504	0.004705662377806347
-0.002618024231750584	-0.009009031793955348	0.01151748660017794	0.009028539546260927
-0.00293550988388303	-0.004059863066749674	0.01792697113727839	0.01016441188792139
0.001425644415833963	-0.002325130549848436	0.01853495796282672	0.005880049763405954
0.004561616750348477	0.0002314068988558737	0.01581912890879994	0.00408772124346367
0.00510042738969998	0.004123587770402306	0.01158377792836922	-0.002343888850915263
0.006978205422342989	0.006165604888550037	0.005370317124901151	-0.004214244957856828
0.01129247288404782	0.008406538344200352	-0.001045328865429536	-0.006282953267704758
0.01794853612965095	0.01234400946389412	-0.004691660709407495	-0.004825194706153883
0.008902348643937765	0.009145260757143612	-0.007715987356948124	-0.004144578298037343
0.006860982017139659	0.001428317910262412	-0.009178309190465547	-0.001753582288658478
0.005363827366408538	-0.00120201044022798	-0.007743245731763716	-0.005314479264824762
0.00209670659859635	-0.01186264986761329	-0.0106458656994826	-0.003369597413206698
-0.007006260687713969	-0.01686984170604359	-0.01607313390139614	-0.00943890605772468
-0.01568238076477393	-0.02369749876382049	-0.01545471807390221	-0.005899548088106563
-0.02134438612282157	-0.02553171461463081	-0.009505204908795802	-0.003466630813977303
-0.01790786788519119	-0.02193958103105467	-0.0006009037172087677	0.002346120998789105
-0.01271839953689113	-0.01515001176012383	0.00828033803217638	0.006853537936435107
-0.007796296239935717	-0.006078802153343279	0.01358551293185289	0.00690878207670302
-0.003538198925143848	0.001109480922229739	0.01840177499090652	0.009887060590422466
0.0006730725533262192	0.00575073578477796	0.01412212222253563	0.0134182845396115
0.002001908269922661	0.01084700898139698	0.01370340613334172	0.004963404812900816
0.009595202205916671	0.01621262232219671	0.007139218530278346	0.003360839209089988
0.01293161642270253	0.01927427063784107	-0.0007422584935413173	-0.001895232177025622
0.01927966192133168	0.02532479030374339	-0.004490804855038148	-0.00623703515830534
0.01994667544447115	0.02993506581324401	-0.006688610372475482	-0.004485534646538011
0.01650793163976743	0.02486108008468626	-0.008800045078718746	-0.004760712786933568
0.01405746866025243	0.02221548958498879	-0.01131470156072016	-0.001237931793538656
0.006531107364175344	0.01583879455640828	-0.0145490267129957	-0.002760516157508378
0.001349531224516636	0.007069927397089973	-0.01590743389318131	-0.008984357191892391
-0.002741631423599792	0.003278347844633362	-0.01267506679668959	-0.005951568260599005
-0.008114932269639321	-0.006038854488390442	-0.01170453698283849	-0.004012770639423128
-0.008971990323248885	-0.00876005013521595	-0.003658242809024259	0.0005959971809480582
-0.01270041250659997	-0.01734708930151356	0.003803412543975268	0.004260061734121115
-0.01426781606047852	-0.01583623259847876	0.01600061922395045	0.003929939095830177
-0.009317074702894557	-0.005988974035364896	0.01773270297101125	0.008274672026223735
-0.0005061805139762294	-0.003728695262139657	0.01528922308689425	0.004202923910864726
0.002140319672910726	-0.000845749075792401	0.0133666659221642	0.003381895502069589
0.005038272207767813	-0.00178086503555796	0.008324892925390071	0.002278643229747696
0.00309760645187573	-0.000939156857718878	0.001773603868134468	-0.00056811032011855
0.003947632201131914	0.004422913624414904	0.001925408184418445	-0.001205920506768644
0.01208708891220054	0.009085729032544418	-0.003813399327745423	-0.006635667548617995
0.01060684982464289	0.01250883380967401	-0.004363934368673466	-0.0009246444482191995
0.0109864088829535	0.01112069701818688	-0.007232102632144942	-0.003863726749822124
0.005306095885000851	0.01013054866197912	-0.01033430058327102	-0.002841949617313481
-0.002356809623126833	0.004922297291036641	-0.008179864045993692	-0.007639694655997996
-0.01122572623013838	-0.003841719909106695	-0.01355774399401899	-0.008498892211305575
-0.01636444582362548	-0.01109009788019423	-0.02265193613617759	-0.004673815423827861
-0.01515145243958009	-0.009804557333183235	-0.01012251328721701	-0.003901062550288237
-0.01511954096252481	-0.015479604618093	-0.007802576985161826	-0.001652594957227472
-0.01259858054717433	-0.009942294483953347	0.004186319481850939	0.006036835771493072
-0.006601545173157868	-0.005558955028967527	0.01512687410644561	0.008567642170155272
0.001545407776912338	-0.001642035236782326	0.01482334754139746	0.007605407210980153
0.003942001337354329	0.0007408979781553484	0.01394543769324841	0.007173514129177526
0.007591488714827057	0.004693104830967154	0.01556166041362897	0.007522730571812787
0.01213611679081363	0.009615845355638534	0.01096029007421564	0.004039791416778182
0.01048215077101942	0.008717564446520148	0.006576065782659167	0.001670304805290611
0.01566658165057642	0.007255298090173066	-0.001662671042530833	0.003456859729013123
0.01413236294970084	0.0112625968590327	-0.005234622078993513	-0.004179036928769029
0.01572573987877521	0.007543666729925748	-0.008109678410457614	-0.00371683742163908
0.01172737961131153	0.008148982849885316	-0.00927956899544962	-0.001943216296500391
0.01434801315930799	0.004154760663733853	-0.01123590805300438	0.0007232268056818227
0.006159634733400481	-0.003688969834292081	-0.01150283864704794	-0.005348722304773575
-0.004539692195317763	-0.01158708311485079	-0.01251175779374079	-0.00411109991154121
-0.00982595784095276	-0.01855576509954084	-0.01689058081211244	-0.007423081286704112
-0.0145096104910816	-0.01757013751495029	-0.007306928787045543	-0.002951023636810208
-0.01383712942232894	-0.01879260435535208	-0.001835221009289235	0.00239222245595979
-0.01079983009083277	-0.01462790485439238	0.003100420180140316	0.007886295164510702
-0.01486425225761192	-0.008382455515739779	0.01281782570964193	0.008884631046123085
-0.008854740102894445	-0.00242665604186768	0.01838492577583227	0.010777712991392
-0.003344413568552689	0.00404826521628157	0.02206018142100865	0.008572176832646697
-0.002659083484072225	0.007461958887100767	0.01869573662102174	0.009616767490456118
-0.002307504758726812	0.009681231776794917	0.01115406016640486	0.003509924642687691
0.000429653230053371	0.01106505280677733	0.003162087328882749	0.002251238258279362
0.002808534750699595	0.01120636205310423	0.006544780083846703	0.0001682731893547803
0.01022806449584007	0.01250831840875251	-0.002089102084842967	-0.003211634748229901
0.01090165961945548	0.01770724678789096	-0.005205354533896048	-0.001768458251573121
0.01348119439654216	0.01430674682360541	-0.008468342631443694	-0.001318586942874057
0.0103820005856755	0.01083220224579007	-0.007291361759137379	-0.004263020874297872
0.007112892921156721	0.001880474496239817	-0.01185904531879388	-0.00481711170522118
-0.002428740123286879	-0.003172603826176075	-0.01379995574703517	-0.007171345119007327
-0.001292379686591179	-0.01148871615399936	-0.01677467916749608	-0.007675772067030758
-0.01027051939731531	-0.01987373552076868	-0.01126671848558278	-0.004540112991582238
-0.007385295830913672	-0.01955960874371158	-0.001562032799214037	-0.004824647532673991
-0.003871375020318738	-0.01733694386851791	0.001680986157309514	-0.002402337913250458
-0.004355855541290802	-0.01285014802269548	0.0122286287684576	0.005009109148170892
0.002844431469428269	-0.006350299075308473	0.01832176119064396	0.003839296505648736
0.003827092749070005	-0.003874227630257207	0.01713983059878038	0.004829066854626569
0.007849817641648084	-0.001307712010803397	0.01774857479522148	0.007206409757510956
0.006132420866279434	-0.0006300352358903104	0.01413461594630361	0.002767894101235161
0.00311554060002488	-0.001462588595379897	0.005579813625140163	-0.003458868377953407
0.0007616110331361672	-0.0004147903568103232	0.0009575454786802551	-0.001843607085857908
0.002331660832084801	0.006265968869445618	-0.003098718361763998	-0.005761301340139966
0.005801264295610199	0.00384013066881232	-0.003240280035552305	-0.009545292661803949
0.002844447881332879	0.001536639457738629	-0.006203735063939402	-0.006023397359721333
-0.003923323790756094	0.001309838508891918	-0.01125129039219816	-0.005157252837349868
-0.01196053724144992	-0.002612547346482036	-0.007190186910702646	-0.007349060178370052
-0.01865717087172288	-0.004754060641139154	-0.01606984064282798	-0.009857957076682293
-0.020592735043309	-0.01009916231549966	-0.01474708521813668	-0.009622846218656569
-0.01801952811705047	-0.01434708604979885	-0.01141878030816199	-0.002531453058440725
-0.01751517984294228	-0.01525110893923633	-0.006363400562766222	0.001125602676157923
-0.01451643933527666	-0.01937523824273552	0.002443273259984075	0.009369337118441763
-0.01670086283182285	-0.01409963744278631	0.01265588912051613	0.01159856928666477
-0.007526643311332463	-0.007382361947243859	0.01180385825630826	0.009442285874036662
-0.00979063137563015	-0.0008978571874446958	0.01142522433261442	0.007037168594675762
-0.007014078386268698	0.002361552444747123	0.01226049196549561	0.008800662321074256
-0.001112697956264046	0.007677751625660878	0.01273337091197139	0.003563809295190894
-8.7724022403723e-05	0.01270081763048515	0.004092509896373893	-0.001781502203277168
0.007119584552282432	0.01618995325910743	0.0004207935594192955	-0.002983351855458227
0.01035688646283585	0.01611495474641999	-0.001342922005760538	-0.003830707882425464
0.01322668439649243	0.01671700863669214	-0.005543466518201316	-0.002245177837243056
0.01160866674102474	0.0212108360918478	-0.004083084038937753	-0.004901706015660924
0.008717324175697764	0.01800208183370103	-0.01054658448820507	-0.004697342906817769
0.008247195960965006	0.01523485934042169	-0.01494529563776582	-0.004195225565441088
0.003966639699925411	0.003146614166093248	-0.01841058593671222	-0.005227045888304047
0.003569392911743213	-0.004017367120673695	-0.013332789985536	-0.00791437129224491
-0.002373875744402195	-0.007110205122624172	-0.0094984901915622	-0.007597923919214783
-0.00263041395497461	-0.006275893792068034	-0.001343130775503288	-0.001033743435195312
-0.004857728929743727	-0.001781021010599745	0.004128700312640603	0.004113270233115817
0.00804357130702632	0.006719606485930933	0.01025646266534643	0.005240184755481599
0.01056485705290135	0.01157160523702978	0.01528434114852767	0.01253228017881446
0.01108260943865264	0.01715673603303943	0.01390263038560162	0.01089109794338125
0.01037567619439643	0.01668707435477527	0.01716797650012879	0.005491522401981703
0.01873628943168482	0.0199513097775259	0.009328024783158499	0.002575592116812154
0.01461812629640206	0.0181606720251858	0.004294081094549713	-0.001003024962094272
0.01389645220107778	0.01360834780724585	-0.002070885149872182	-0.003849171951493713
0.01477994205697897	0.01092693445887573	-0.003976272903818951	0.0002252592901210816
0.01133214598723941	0.005889570219905436	-0.005777903376272857	0.0001339613526488197
0.009024198132966748	0.001014708133319492	-0.01008189047889813	-0.001833742770202407
0.003779016376366129	-0.008248032996114717	-0.009972904006592903	-0.001366068943572985
-0.00296605267245446	-0.01876903169615064	-0.01122571671519479	-0.004584124789929932
-0.01378574716184025	-0.02962972271290867	-0.01650345200114586	-0.004472723686198448
-0.01737147353870041	-0.03589889240715061	-0.01751370920590896	-0.007818915427714601
-0.01832481699747518	-0.03268377211859751	-0.01303016415819357	0.001519827556478656
-0.02054760883024113	-0.03275590203622371	-0.006959136201811588	0.005552542575782598
-0.01546367272858543	-0.02338477070690394	0.00359205681815414	0.001890855044464679
-0.01248225968286356	-0.01658245643392906	0.01250688917334237	0.01186109339323112
-0.008440417765920919	-0.008691005016204741	0.01716541509918948	0.01308880354050721
0.002199136461607671	0.01584997871789474	0.01841290366760797	0.009532848181056338
0.005996617323712441	0.01627329278606843	0.01988046240885145	0.007518774802325461
0.009084670364639731	0.02550690860142408	0.01138591063104643	0.003342674014801641
0.009725384184038207	0.02767926645549736	0.00633443458250598	-2.703445219173919e-05
0.01415324103989273	0.02040177095570081	0.003121558770411058	0.0009032347632188161
0.007256658572145852	0.0175094597578942	-0.00242294555787838	-0.002800190514668936
-0.0003809088891288923	0.007822988516050414	-0.004937753548948173	-0.001612141586646316
-0.001545504978689166	-0.004143803728300512	-0.004656405456741046	-0.005974096593999315
-0.002622617171505728	-0.01229545388420111	-0.004515662436334022	-0.004497144654571669
-0.005429010529168111	-0.01509756710253879	-0.005884953176549975	-0.006352536919197259
-0.006439047958166071	-0.01868493107562643	-0.01396935294670667	-0.004731972461198808
-0.0003378734197478485	-0.01540177668837105	-0.0172314448413509	-0.005592806159907479
0.007109060232477244	-0.009793606195736045	-0.01255562157153632	-0.00292636709669077
0.006309223798821866	-0.006464101590837081	-0.009121308402607822	0.002722897587773436
0.01349896106442425	-0.002506083791220103	-0.001238626625172374	0.0009899749508185994
0.01037696514091575	-0.0006057671528565489	0.01091776257342194	0.003907154483058008
0.007364939678285705	0.00373435338782845	0.01810071218159649	0.007100393915580534
0.001905941567679283	0.006580562570862093	0.01674684394727735	0.004798115384523212
0.005349467238042905	0.01185247483773488	0.01648887899590663	0.002432885996078049
0.0006847297351154212	0.007945983961963709	0.009505176698523549	0.00331647083642441
-0.001118397267373917	0.01192310943600639	0.005540320780513189	0.0009086842252522831
-0.006073201834548988	0.009765299918618511	0.001222978134726491	-0.003343693452123261
-0.01216246846428384	0.002116427299783065	-0.001218076886421515	-0.001716299320144629
-0.02200253829198126	-0.008764695698213861	-0.003890486632826451	-0.001778181335481239
-0.02704992142966835	-0.01722668723912701	-0.00834881881140412	-0.005010758942408047
-0.02495873946386637	-0.023791885932178	-0.005983726586275174	-0.006972597700286871
-0.02266290596023997	-0.02275363253401044	-0.004144069481172807	-0.006522161019362189
-0.01841266623942237	-0.02178023452927228	-0.01256122823778208	-0.005450732818442919
-0.01326651239126221	-0.01637691031901553	-0.01672501617971721	-0.003149547467551429
-0.00655168555312451	-0.004996595961562249	-0.007823285084494187	0.0005122085130304293
-0.002144127461122834	-0.0007003563710530062	-0.003606173445359987	0.002545043788007112
0.004796073548676505	0.003678479495388524	-0.004252379592309034	0.001905428525278489
0.005476390084135803	0.01041690207901918	0.00534990301123059	0.005839889622637946
0.004758401096420445	0.01138623338193233	0.01618132588188256	0.01027855418467692
0.01245642582752082	0.01809365822789387	0.01825929697238099	0.007689938585830235
0.01178196209040066	0.01932293791072299	0.02062342891721224	0.006190131117219229
0.01806754361390569	0.02633286925814817	0.01628273990980262	0.002219024200560999
0.01379042205237215	0.02348908025369903	0.01029875058696115	-0.001165520699352009
0.01448613775465499	0.02148473036514169	0.003962028119345162	0.0006926936441930652
0.01232263771897691	0.02520151860740844	0.0004645794803648577	0.001437381698780556
0.01146103224612172	0.01288835336213272	-0.004154611874962888	-0.006738859905877252
0.008301467618622686	0.007521176711801041	-0.005499149923863115	-0.007468436993039883
0.003067867156716994	-0.003583820815929261	-0.0107331340160935	-0.006337517591983525
-0.003100494946214628	-0.008110083742217991	-0.008528353312921948	-0.005015729787329156
-0.003732702120423665	-0.007311533366040814	-0.01163353698198523	-0.011403047186549
0.001419280247576207	-0.009820731717554371	-0.01453461398458802	-0.008198533718064688
0.002410923944845681	-0.003718296536122877	-0.008285125864404599	-0.005835175906474405
0.002477336375245596	-0.0006618398298936063	-0.005465530039528666	-0.006005244096189948
0.006607275489267519	0.0006876997024895775	0.001814258858338798	-0.001925249493104267
0.009419844533484415	0.007208145251612973	0.00710039272853681	0.003669955537363601
0.006786508826166953	0.005664978605587955	0.01282154388567508	0.005988441262951287
0.006414516435477178	0.002007496247465411	0.01455249476845541	0.006812533203846039
0.004366878301960046	0.005432107050007537	0.01419176217243718	0.002978117010251862
0.008606832405518171	0.004599388646072098	0.01382881557819494	-8.482999774568087e-05
0.004316895931477092	0.005121313528029681	0.00776578665443616	0.001554966763393051
0.002366150807923679	0.0008940923535039091	0.004553376432745791	-0.00057832234241484
-0.002039271320165355	-0.006515672107983865	-0.002478908532249394	-0.002665324426728095
-0.01112614287201639	-0.01300546639830636	-0.007514002981530466	-0.002242958617903061
-0.0148219506091438	-0.01873962366726877	-0.007597230304701828	-0.003294431905070162
-0.01750935283304064	-0.02553054839262425	-0.0138139816117959	-0.005258751587170193
-0.01846646823881796	-0.02622866722241429	-0.009858414366196539	-0.005257809051332283
-0.02080185410468513	-0.02478230304589549	-0.01449032363520167	-0.007217799639464435
-0.01673744006951201	-0.01842802943828209	-0.02221143609474177	-0.007877023205741619
-0.01378043416923439	-0.00906163964762855	-0.01655042654948846	0.0007075066001777203
-0.006977602023626418	-0.007649102755989422	-0.008200092416157993	-0.0003863426097852131
-0.007536020431872592	-0.001758342283242068	-0.002972002025417042	0.005173995562577438
-0.002976528226063547	0.00408798461848848	0.0007600989117895367	0.007409565882400731
0.001575248175628839	0.007169879449056204	0.0130382866868746	0.01343782111409527
0.0008057856689950225	0.007583889575446613	0.01520613754903986	0.01007808646862246
0.001825775385229635	0.009067855024271355	0.017656837492913	0.01103371351757413
0.004507483482790887	0.009855897985624855	0.01197462571025155	0.00421596964508739
0.007400238633250815	0.01554661363463064	0.00754594349303001	0.0001113684615587503
0.01078953717554074	0.01191987724445416	0.001708414246343913	0.001460004718761559
0.01236371015993866	0.005324857719818345	-0.004441988934780375	0.004046084512180636
0.009184600061434598	0.0130884541842885	-0.003112143335921874	0.0005291095590330983
0.01247915527850475	0.01224258276294043	-0.008377798493565725	-0.001512178371045354
0.008343819210561314	0.010963532594421	-0.00371562552267475	-0.00089003824205485
0.004630136677423406	0.003781585758052818	-0.006095764951496335	-0.002110759187181776
0.003613826920251702	-0.003444066193387442	-0.01439280912143475	-0.007570617206289645
-0.001553982880032073	-0.007698991950474232	-0.01609384090321656	-0.009779958280042215
-0.005516695355847165	-0.01291466125177951	-0.01344028967256698	-0.002140958716601077
-0.0127132882570071	-0.01665468073936466	-0.009710378978004421	-0.005317317689088058
-0.007277128450876556	-0.01411964648552837	-0.003407880327715	0.0003849987489017495
-0.004382419253068742	-0.010159914597841	0.007561316308283049	0.005787745234778887
0.002201913888578333	-0.006907563061444298	0.009009027132148397	0.007695461578486071
0.007415515381071329	0.0006465425676625182	0.02095701096504073	0.006539401016726148
0.004680906322800865	0.00126413729240177	0.02213908180641354	0.008395174417806605
0.008028676698320459	0.003451359478905733	0.01687674437626061	0.00256614882482955
0.007353191167789649	0.008720888114624809	0.008963365932154802	-0.0004600645449666073
0.004420448413826231	0.006514533118481204	0.005408569063516486	-0.001548339077878321
0.005707436897677297	0.001131802501492299	-0.002315430213263327	-0.004606801874619696
0.00293994844029936	0.0004524483206255614	-0.0003380248657519199	-0.004874955567615431
0.01075092577726973	0.005292758396559939	-0.006654685731572674	-0.005077805002158914
0.008907524103557343	0.007594707671772531	-0.005528131636028864	-0.00587568422312868
0.004670034473569043	0.005803480387695933	-0.007529245202855389	-0.005220268704735956
-0.005989309443402464	0.008617763728482093	-0.00933642829713925	-0.0071850208437345
-0.008823100081279026	-0.001937586585281767	-0.01666553391119912	-0.00465403419301785
-0.01262680921217363	-0.003316539232240606	-0.01219528788383848	-0.003657397962781196
-0.01456906405766495	-0.01226630982743857	-0.007841548813000539	-0.001878056344395294
-0.01447365757232184	-0.01164856095860154	-0.003927175282422556	0.004035789804230002
-0.01450228922574031	-0.01307714593771005	0.004861077964452767	0.01094698628515533
-0.007681148701536078	-0.0115384524288593	0.01676712521118601	0.008095050590812707
-0.004835584029515629	-0.006129327907775921	0.0198386250574522	0.009131679250570637
-6.462154115879057e-05	-0.005544238971276806	0.01872726764962712	0.006609903621485926
0.003497427629871673	0.001932311574630547	0.01476034059654229	0.007066300844128764
0.003689357748385707	0.0008173240735702007	0.01390845237633432	0.001942207733500739
0.009075306091032709	0.008111599195887165	0.0005924452930970828	0.0006744900296190799
0.006480410548658977	0.01024524973791033	-0.008576396401835266	0.0001157553449051083
0.008718838517944059	0.01421241535413825	-0.008182699865796558	-0.002587623515532977
0.01213888868712321	0.01967215755455731	-0.008532871566434373	-0.002316409097624085
0.009846178242613994	0.0188699932384528	-0.01136783613069691	-0.001216491469255371
0.006568304644487205	0.01298275087058695	-0.007776158561076823	-0.004750099466041218
0.0008245338666196802	0.007660969803367086	-0.01334755864312872	-0.008274348398657771
-0.004265519273775519	0.006466879024462969	-0.01386389076864126	-0.00631048090035318
-0.00941027575168556	-0.007186025378686124	-0.009396219039623876	-0.002656367480809243
-0.01106121259534494	-0.01379024866548667	-0.01062883448127475	-0.001861851466203182
-0.01679794513372137	-0.0211154347772224	-0.0009797717274309396	0.003023787172994978
-0.01486919832572145	-0.02209123346364778	0.0075064472430367	0.004561609551243024
-0.01169307495701581	-0.01569728867735634	0.01170593535089958	0.008243983482434126
-0.004155940092421182	-0.0100093085805129	0.01302779411748564	0.006541420305693068
-0.001082981835593726	-0.003674301669492301	0.01660142183613268	0.007661650032930884
0.003309930812395138	0.003545164683620639	0.007886684562044352	0.004378835063738245
0.002019587229156138	0.004018004192886183	0.003840167503913915	0.00289724645472172
0.006768163309638578	0.005782851863325167	0.004033615605142828	-0.00142990596242607
0.01145453546666187	0.008171742277948525	-0.0001965105424253615	-0.00144158394328125
0.007302128113785747	0.006670236348375395	-0.001630353878993118	-0.002104531272985484
0.006714283211337399	0.008028789812852901	-0.0049927319277911	-0.00222545947766415
0.01271625394070268	0.01068969612807143	-0.005277952099307033	-0.005388777278883255
0.007770920263657229	0.007949730922355343	-0.007640198377376168	-0.006661563863299408
0.001275762495143481	0.002481712137383173	-0.01491819496986896	-0.01104834063377973
0.0006904968527014772	-0.002546778343340657	-0.01202663082630643	-0.002460332816921676
-0.006515605350809453	-0.01131317491868689	-0.007532723039130253	-0.005833916184453409
-0.006508152032046933	-0.009688737429579449	-0.003233865495727594	0.0020385249261896
-0.005612152919833214	-0.01155760866431832	0.007412758851011391	0.005129119630550512
-0.01121131849571917	-0.01142623688796629	0.01504278780449715	0.003552216845126365
-0.003725929229372657	-0.01022985730325685	0.01800842819439852	0.005349436128488746
-0.003404911358119598	-0.0004181948550126828	0.0183633838688981	0.004597677024239662
0.001025824885624702	0.001298545278891571	0.01380550184564313	0.007205915152731179
0.004347351519601797	0.006280725958757915	0.0122374790899289	0.002471175223070497
0.004045749968785229	0.007477639605253634	0.004451280483256833	0.003538639236740308
0.006835435713834703	0.01936140393245155	0.001325767917541102	-0.003740708010307719
0.008716874993714091	0.01603801897216618	-0.002843385676678335	-0.006631033691884902
0.008170727069885654	0.01968939089280489	-0.007733911973715935	-0.00407290261441961
0.008911884139155375	0.02029674464301278	-0.00864497054599909	-0.004014870986401393
0.01332274677360411	0.02032683002711974	-0.01149263915247485	-0.004079325654674396
0.01239835993650369	0.02081956054176388	-0.01263998915496109	-0.006472115646057875
0.009962861488228681	0.01385871012552801	-0.0133108233551585	-0.003478584412149568
0.007137606704095498	0.007723722031188946	-0.01175463792935215	-0.007433338275469625
-0.0008696872204332214	-0.003451280440765106	-0.008633965900662949	-0.001680367019640966
-0.006683130826871149	-0.008554122185491507	-0.002151151076681699	4.912932885229525e-05
-0.009612692228902899	-0.01943761166714024	0.004244685787546998	0.005932642882666674
-0.01315836000557076	-0.02228522957313697	0.01599951236987703	0.009313754399602468
-0.00976377244646435	-0.01858528522655949	0.01754689927302741	0.01010359365916722
-0.006162533882022161	-0.01507106334938753	0.01644193209357037	0.008320954905958477
-0.005314894036948696	-0.009683483739435445	0.01350656046351961	0.004222310776441912
-0.003093250603718584	-0.004163402284862987	0.01072036222796649	0.002514534313937538
-0.002950049307308388	-0.001256307295691507	-0.0007798987107320598	-0.006200270407737875
0.007136408024519341	0.0008807404214700832	-0.001616327428769082	-0.003736535563500588
0.005900214496191067	0.003440327210001254	-0.007672321132608861	-0.009446709891095351
0.006340203933216972	0.003878165238123245	-0.009664004262998847	-0.005873642313706857
0.0111173730237794	0.007771987078501478	-0.006256301995783034	-0.005868946367314463
0.01045777886206878	0.01172598439465843	-0.009503918144319948	-0.004039036794434249
0.01269082984008749	0.0124728307203647	-0.01351453000885721	-0.006192269094131789
0.003482801656126677	0.008240951183762587	0.002742445554299451	0.003801161749628409
-0.003083481429314846	-0.004513381248028869	0.006920793753673494	0.004666888687121882
-0.007779194492060627	-0.01054448291745133	0.006344488790208907	0.0003630232954057267
-0.01030751628124606	-0.0168351057272988	0.004081289323135735	-0.0007183656384916749
-0.01448502548459736	-0.02160662487275197	-0.001824415894358537	-0.004607057663249594
-0.01653144964022289	-0.02772198209868252	-0.004924066829588509	-0.001855324458873099
-0.01895149085200038	-0.02480182066640925	-0.009919615556760663	-0.005649741785198479
-0.01649285838924028	-0.02158177580252375	-0.009305873023203275	-0.004311506415614108
-0.01726349385519585	-0.01314599824129473	-0.01367602346043671	-0.003163573605196113
-0.01270737199218403	-0.01446743814896206	-0.009741923441635981	-0.002948074221873989
-0.009149460429907056	-0.005754973049582663	-0.01665317721988037	-0.006265268238803659
-0.004810024305648433	-0.002150596065685366	-0.01721703306395294	-0.006063555765990071
0.00266645703928716	-0.0005942846231437694	-0.01563799373106299	-0.004927431387229409
0.001716012323592054	0.003597931248316715	-0.008928041129162321	-0.002886706999973056
0.005662861491765587	0.01313301502148353	-0.004196732963498468	0.003617599502481762
0.01152634871718928	0.02339417586910952	0.002754780867720885	0.00611476670009363
0.009456170500589115	0.02195377770603876	0.008547406853274807	0.01243007135927362
0.002788331487867903	0.01709292845287165	0.01774702891677829	0.01099791456443698
-0.001479344428745191	0.008230261330576708	0.02130856573604826	0.009499550391363321
-0.004489701303009267	-0.004401094005104405	0.01899718303591466	0.009983691703699768
-0.01135640512466384	-0.00342107764002585	0.01542997253051177	0.007155396944076858
-0.0124189827447883	-0.008652304935318812	0.00889001545064985	0.000357472746184044
-0.009240458754789205	-0.003095532503294278	0.002948771650966225	0.003850657289190881
-0.0005512476622177868	-0.002199790684269208	-0.0009677215456937058	0.001642607182627485
0.002442313121914614	0.00164993529439358	-0.005937444059548569	0.0004940729199544261
0.007199415049411829	0.004043308189883806	-0.006604438109549356	-0.003111137249251205
0.009265787140768594	0.006324437088477628	-0.005368094059156978	-0.002305471975806022
0.01262499221857532	0.007447957123266361	-0.01015994374592288	-0.00231825847566966
0.01436057048828163	0.008707429656706754	-0.01063002627027699	-0.003387341462209634
0.01526027808234335	0.0111813903718984	-0.009006267136382883	-0.004006782960621931
0.01810640109571557	0.01278331973338821	-0.006920946149455331	-0.001459637712366377
0.01444423094205216	0.01147262695909337	0.0008360623592895052	0.002982868894198683
0.01397413678627191	0.01754387114103891	0.008106901045455342	0.008590251622889117
0.01006697572175124	0.01705192506263152	0.01881675999497726	0.01210485784659651
0.005817165585355384	0.01088529997801192	0.01862759172911855	0.01215671415812838
0.003159149684598368	0.005350822095831438	0.01755479716508587	0.007497242906156054
-0.003112531304654794	-0.00413180643715593	0.01886163521897349	0.008860281114597668
-0.007004827175829625	-0.01049596796724502	0.0119113013474839	0.002933417416119779
-0.01489969612531013	-0.01358601407781941	0.007433925734042255	-0.003745984237319768
-0.0182670075801526	-0.01957396857502323	0.0009838591852266083	-0.001292174767411911
-0.008517816227417551	-0.01278690080034719	-0.005667297914494364	-0.008618082285423202
-0.001009599832003064	-0.0044823780856092	-0.00762935349636711	-0.005776041016075893
0.0007125377692995603	-0.001164426782538792	-0.005830256624499812	-0.005104561826937195
-0.0001987994664425509	0.004064725947326802	-0.006269175838161512	-0.01045176790862355
0.001462719681306689	0.007039412695978667	-0.007577441700365902	-0.006570357633494207
0.0009881517325443748	0.004413343790306314	-0.01354569362541526	-0.01003188563499088
-0.001444799333178206	0.005977840867882135	-0.01579909096965904	-0.007169477803345974
0.009414575075942238	0.006813971443897079	-0.0123493711561061	-0.004848325146508981
0.01030601739084706	0.008593419180272432	-0.004018300948236869	0.0003401894604257143
0.01269334934335032	0.00936726152554594	0.004070421521232038	0.003587719898561112
0.006523529501098118	0.01015896879650591	0.01104754877806178	0.005408363506421746
0.004241181370577266	4.639340304284543e-05	0.01285400584899118	0.004367143464562371
-0.002618443046552259	-0.004484987081844969	0.01499278206840168	0.00256427595367793
-0.005082735670501199	-0.006511454937565485	0.0176751821572329	0.005167662851884356
-0.006767246888783622	-0.009239047588827452	0.01094851501783458	-0.00193894773126676
-0.007904144694058753	-0.01335629557965447	0.007368801816279281	-0.001499650738629681
-0.01128546510103611	-0.01719803935133574	-0.0003175577005023394	-0.002445891737974291
-0.00967344993581463	-0.01567803407576969	-0.0009236048343957095	-0.004150273340619751
-0.009605846322934194	-0.01060445030754038	-0.004646447176320593	-0.005006893586941181
-0.005678591102942743	-0.004820528589759702	-0.009292387135848894	-0.005834536389782484
0.0007744892583149752	0.001494542911112076	-0.01014767327094046	-0.006454719959512499
0.001417020618648875	0.0007783501401255346	-0.008380823150046105	-0.003544470040971074
0.007470307226264216	0.0005894647327133437	-0.01423935286056356	-0.008459957469054579
0.007721610394069747	0.004705914297152851	-0.01184387324369688	-0.004826728194986494
0.01094652583799887	0.007920404370069807	-0.013642536542029	-0.00358980827376678
0.009202108929552144	0.01212609103200023	-0.009965794754802158	0.002689691056528365
0.01178717833345399	0.0093436471542316	0.004725124211088704	0.005432676171659356
0.003736079815577363	0.005907373818018817	0.0133831598317076	0.008616442468203513
0.001525049892460941	0.005339236736974511	0.01464771350498116	0.009829726284400519
-0.008013303352740246	-0.004674320943958405	0.01656824669132716	0.01009559019853663
-0.008610743051381511	-0.01698871814329642	0.01599244117139673	0.008980050656400248
-0.01585468634442069	-0.02068635346899084	0.005810909562128362	0.006512966905278588
-0.01133216528694406	-0.01916367096109951	-6.651678986939913e-05	0.004885005856931082
-0.0152197482099803	-0.02065855586986006	-0.0007875851171618132	-0.0005132996181869866
-0.009371937386554429	-0.01707660661002478	0.007770494541536982	0.004099422247166495
-0.01005300496847615	-0.01126775127195776	0.0008282398239950296	0.002318877059481112
-0.006112357371553977	-0.005789529244988734	-0.001595691309396248	0.001237557662635321
-0.002158239754210444	-0.00306043563824279	-0.008302819977974989	-0.003791039673308885
-0.001350519314116889	0.00224774112613418	-0.009686460516096914	-0.002860663857183493
0.002000367859026284	0.01068436251985673	-0.009892878582622461	-0.002691048699839948
0.002336391288441925	0.009041851007393133	-0.0136636173272424	-0.003702149730489081
0.009415694875367073	0.01229857996311246	-0.01063369876897399	-0.0008982282621824471
0.007902643802451826	0.01783741651243923	-0.01470508504005706	-0.007417395776232545
0.01180688517045453	0.02008648798898849	-0.01456868553622182	-0.01206786536892128
0.01112936300755414	0.0132354226810096	-0.01044800828060798	-0.01014385544239804
0.002372029400488641	0.01039745138817015	-0.01182015236000179	-0.006120146153594139
0.0008842968545682196	0.005815050554970533	-0.008180446970034066	0.0002737761257997554
-0.006665170583742866	-0.002272603469680722	0.0002376307442522762	0.004886925818129668
-0.009032467727683119	-0.002664451472867174	0.0096567076019552	0.005481468658479953
-0.01153651435997899	-0.007573661224611785	0.01352001637739515	0.008619355715513428
-0.01170512919840738	-0.008195186533206266	0.01666961991445779	0.009644745017686253
-0.003732256823140193	-0.003024598012890515	0.01759345562049502	0.007312765910748981
-0.002391333765377642	-0.003675158998722502	0.01154949207655823	0.006009480806334569
0.004017907902858334	-0.004218700349035901	0.00283744483038748	0.001711486593079744
0.008081292805691255	0.0001776200714142864	-0.001399516840519869	-0.001418458260433793
