0.01987746365781911	-0.02679510496308624	0.02199750248332797	-0.03668563637234665
-0.01026927090593075	-0.03913792626022344	0.03926673487325919	-0.04275519610526159
0.05022676131088724	0.02108667833679177	0.005112465465748334	-0.09665476248969883
0.02010775102860108	0.05648751740125458	-0.04029648629177233	-0.07783924243079918
-0.02248138280599016	0.06609615828838272	-0.0659304186139784	-0.02132749768933815
0.004938837699558293	0.05434394772882056	-0.06569502429869549	-0.001516821519680926
-0.01317990392725518	0.0258339753610381	-0.05368556504015704	-0.02556745641637112
-0.02003308458327661	0.0207005099577727	-0.03402983205110344	-0.05230237791897336
-0.00210057750446308	-0.006426427720004703	0.001605524190412784	-0.02387418064562018
-0.07713028851239606	-0.003926075574583208	0.005672690164031414	-0.01677467299283924
-0.06348584845332664	-0.00512340793664936	0.01273790298399739	0.06151039273908165
-0.02746240992272619	-0.01346875435072209	0.01405698198855915	0.2753945764019006
0.01679446769732432	-0.001257655764870104	0.0272099362949095	0.4024977225287302
0.02638448927720964	-0.01993581119949854	0.01486255460334518	0.1938969423401576
0.02008068796235062	-0.01702592295259822	-0.04136631892927898	-0.1107731468491149
0.03007323836869838	0.01400806435613781	-0.04034219774378638	-0.3195553725665847
0.02174413346825652	-0.01050975848602586	0.05741289164235917	-0.1530558850245271
0.002439705612204233	-0.04826819723925483	0.08715039494145735	-0.1684013713188559
0.006037119209559353	-0.04487120803459099	-0.06848123509081583	-0.2471673604411639
0.04266540644626914	-0.01721488492940713	-0.1045726620163682	-0.02362874749012467
0.05365383446790487	-0.01077009728232183	-0.0939023177323168	0.07486759595166446
0.04780568173336795	-0.04290135553298313	-0.1441112550782013	0.01586225343808097
0.01605250233212656	-0.04552149341641382	-0.03239994066052006	-0.06459469682118688
0.04564931229866381	-0.05288377679968737	0.2171960413930546	-0.127115537158851
0.0342927684192915	-0.02488539836831485	0.1235632946709639	-0.02773354733746032
-0.004287015478683043	0.04252379285922179	0.02823620526727611	0.007155768079150288
0.04870035876549918	0.08158718338003278	0.02003292021958628	0.02923808458616936
0.01124399265326536	0.0796761115081088	-0.01700261053967853	0.01692269601391566
-0.0437602263394347	0.06566951167138967	0.02346887917878906	0.03589938005822607
-0.006176580801795628	0.07845104655616097	0.1163579065634831	0.08214664371697573
-0.002502368378749467	0.05921314090497012	0.10146246959783	0.09611686480049964
-0.0281542216475615	0.01993149735595369	0.009251039333727878	0.06534732276264071
-0.07403693034952251	-0.01632385806113868	-0.05604835751632357	0.03098704693159535
-0.06797006559666137	-0.01242726119421786	-0.03598373053426472	0.06303031341954106
-0.08682744805198807	-0.003674197282024674	0.004673020357913941	0.1202548529095184
-0.06559629850524402	0.001207713138633597	-0.03815184973101866	0.1360331562081555
-0.03217929053306315	0.001987246894996902	-0.1007430145880184	0.169285873822253
0.02330043158032761	0.009405149986841001	-0.1395240059099143	0.1535777657519397
0.04117069538164801	0.02940286903785787	-0.01318517411164784	-0.00571413290111218
0.02015297111817897	0.02847159934402272	-0.04132866397326723	-0.09123951987521654
0.02575096950139346	0.02499515980011753	-0.04055425470385117	-0.02249246539966097
-0.009956566003899384	-0.01274980621120923	0.2316038636424357	0.07009149356113809
-0.07014708383079349	-0.04359834275991697	0.09308722693297911	0.1060484571868466
-0.07488560886000586	-0.07807332239655639	0.06482035894205802	0.02095888115657263
-0.0191430216936998	-0.1325685740170072	0.1007623563854853	-0.05108841899524398
0.02840105260160333	-0.1377950781561927	0.00458937558005906	-0.2375966231639507
0.001606131394137939	-0.08664615022736978	0.0283747790738636	-0.177947320933639
-0.01612799936177703	-0.02180405962259303	0.03866559715844731	-0.05869205775874983
0.009815104681650371	0.04426865084183033	-0.00100742051688666	0.05809296113817638
0.0484135979390002	0.1103414843863969	-0.03902799318915249	-0.005442732939730684
0.06381034717047805	0.1592341266373988	-0.04107084247827471	-0.001459984328554895
0.05379507276897213	0.1973762169724225	-0.09473562642707384	-0.03293019973997188
0.0151843312776169	0.186617656612617	-0.1212986117815113	-0.1212386006335257
-0.008399891889849019	0.1260282941168956	-0.09723076634136936	-0.1423749022869868
-0.007102663116605099	0.05619146261346419	-0.03414203071500788	-0.1203879574058889
-0.0006390921580764788	0.03534204236388706	-0.03923804964848696	-0.02115869332964881
0.01281632071828202	0.01906976151218088	0.09996006379321613	0.04390838059161899
0.0336529706025922	0.002703992042361806	-0.02623867424031002	0.1166280799726276
0.01145967738450312	-0.02122126053531201	-0.09802022317523425	0.07341344448735077
0.03296648238772563	-0.03114920814709149	-0.1205611447747548	-0.03494137253018911
0.03741027533733071	-0.05866453858667289	0.05294531988289191	-0.05083779736494043
0.01091151271252069	-0.08090874908236445	0.04879776011713046	-0.06750678776865031
-0.02900433372736641	-0.08757433347965025	0.1121855370251028	0.09837989274800933
-0.008387939120018062	-0.1122573009265569	0.03151136813197637	0.08809699965616348
0.03976908562587098	-0.1120725430350242	0.05048398070593864	0.005528053358057537
0.0378317244491778	-0.09691741392060409	0.03340567476065509	-0.04382915512488426
0.01947049307165013	-0.1029058876050913	0.01479649615829781	-0.009746537825325509
-0.0216102540536905	-0.1028662435862035	-0.001691748359449922	0.02534580222223216
-0.02562553947048253	-0.09169532646056162	0.01249445678257652	0.06693172625559583
-0.003651465134450967	-0.06994347730202795	0.02390820870401435	0.1082840381881501
-0.009276158245206716	-0.05461883837665266	-0.004134898387369803	0.0818176626379707
-0.03984369753794799	-0.006713750153625135	-0.07288736609086394	0.04455937632206884
0.02793638711421554	0.04137992228392153	-0.08523517841416474	0.04432663758752328
0.006378845963543897	0.0528826672872134	0.02700594276777001	0.06571065012794833
-0.02804341787156936	0.02745869587991163	-0.01871166755354029	0.02288084857421409
-0.0002000769916298535	0.003822275229126119	-0.05200833474351298	-0.1151995215499603
0.004216847553849424	-0.002399644710671825	-0.01261184604235941	-0.2254061746615371
0.02909032748783915	0.0008857845438103899	0.01040878270901878	-0.09180426089013387
0.04184468064878078	0.02834129378686977	-0.03893503816299354	0.0321877047336635
0.02196340186719618	0.04957519551766751	-0.02985696826884429	0.04468474262461562
-0.004847200683519401	0.05312550901472538	-0.001439777891553249	-0.01439799153514463
-0.01077672812003094	0.01168622533860376	0.010433111995732	-0.02605494151953431
-0.0355326707121776	-0.01049309605757853	-0.003736126831341476	0.05020624153692039
-0.01633410576509171	0.001100067366848308	0.05944785116675167	0.05118872982608394
-0.04002941484281413	0.01101178951930496	0.01106339753335243	0.05223612944181046
-0.05191070496222294	-0.005195406275704615	-0.09651813685626955	0.009485602859976789
-0.04397482306820358	-0.02079627599620565	-0.06849928422213665	-0.08257432850628604
-0.005671068144488981	-0.04279455434924762	-0.04289004745717814	0.005154211560867479
0.006928163799054401	-0.06159449434895825	0.05860443386910484	-0.02532086131833347
-0.04029161179707581	-0.04975864213468396	0.04760689386679379	0.01824248072963561
-0.01378891755955549	-0.0185763505261078	0.07821006008852791	0.0008061902175469767
-0.02680584834706781	0.01580881023446433	0.1198671959238302	-0.08928308741028711
0.01619634933800687	0.04768107449174083	0.04252583128144975	-0.07380252539643194
0.02656367252689961	0.06918724544620013	0.03344049298881113	-0.02315424072065879
0.02518391309476713	0.100694152745661	0.01966056305192853	0.01186089902015519
-0.01271740132462252	0.1153756843999435	0.01028847618862998	-0.01253354125558927
-0.0208650898164577	0.09131333890885449	0.01977410388962492	-0.002890140343996998
-0.002949228840037794	0.05762215239705981	0.02358181743308723	0.00404005411453247
0.01577292520150242	0.03447777855836849	-0.001366458850525322	0.05464277837738045
0.037132936427243	0.004792776755758061	-0.02732493893742262	0.1003518786158904
0.01669365184109451	-0.001864666395616959	0.02913313025631192	0.01971517898386016
0.02448616396212758	-0.002631053273494753	0.02016660896289971	-0.01750106734766517
0.03589548898860048	-0.003854101546169541	-0.04424116210807576	-0.04737969912154452
0.01778264874343463	0.008736892500173421	-0.11213289597114	-0.07411749186469457
0.0266269660950121	0.01477168556858876	-0.1030567953820668	-0.01526293678658966
0.05139171892758781	0.01852962938274658	-0.06105041137188055	0.01273272219154713
0.02982988738431332	-0.01199454734181227	0.04142386183733216	0.05619305523694895
0.02505423395146767	-0.03566340364746507	0.1145715260858812	0.08964863243991596
-0.05981716024607049	-0.06195607397700695	0.02534989617253001	0.02171632622439036
-0.1424844702616126	-0.07086290565404246	0.01979719152401847	0.01004511822722765
-0.11221561553892	-0.106600647623653	0.01591029894467347	-0.03570131422176924
-0.02761715915713148	-0.09314302997487982	0.01953568638085336	0.02274279870713019
0.004821561084600081	-0.05282685002729997	0.01294065962814468	0.05714444908898025
0.05132662384561233	0.01685705580942551	0.02192013826633979	-0.04010279159557868
0.03905655727418258	0.04947463216288572	0.03147697284857493	-0.08720702908956261
-0.008591345763864269	0.06844747428186697	-0.01393300574753904	0.009525571800307516
-0.02469215296969882	0.07247900649942486	0.001340147223223919	-0.02698238003587054
0.02810031824398825	0.04280225529725239	0.07308714580648652	0.03078702999130117
0.02648227800066241	0.02777656786081364	0.02493666721497081	0.05567357395730645
0.00758008318649537	0.03377623490357335	-0.01756626842065153	0.05516190994069356
0.05261016644021443	0.03772633140893198	-0.005703224237345658	0.04741351230534394
0.03233536761275523	0.01098288388079102	-0.05799209458131808	-0.06583220346104254
-0.05117784995524074	-0.0568201402440118	-0.08005772788877046	-0.08482626476228651
-0.052534133198753	-0.04967439637119236	-0.02365718893540239	-0.04286023270418354
-0.0542835223073512	-0.03829668246623361	-0.0125393273419834	-0.01923662629019325
-0.08575808014989393	-0.01930580030345266	-0.06784269091177489	-0.01263863428139648
-0.02484785141525827	-0.01442177153962524	-0.04752915658503616	0.005647683068442583
0.004180717607741108	0.023906850615866	0.04268518209162076	0.03615840991078168
-0.001019717546191116	0.03567849582115198	-0.09660616288634266	0.02134382313184204
0.02127677233388087	0.05254662401147898	-0.1085080241325413	0.01650835022055473
0.03893450985458362	0.06342197489872971	0.002606038342504374	0.05685574538917754
0.02853049588077591	0.02520523746047461	0.03341514860629086	0.0703164637597619
0.01155534423202385	-0.01855793811987384	0.05829828441431166	0.07143430177717996
0.00650543139654354	-0.1043217280950582	0.05359171892576953	-0.004729352816426593
0.03389960805172228	-0.09252359850282635	-0.001068151532148223	-0.1100311969065766
0.0356759604581665	-0.06620039048457774	-0.03605301122785681	-0.1331453384804417
0.04685868814568396	-0.04843895882898754	-0.05152286009501454	-0.04339525510603857
0.02056786227070754	-0.02011295891954611	-0.04632471630218707	-0.02063836436404288
0.03783245832797462	0.03577014945519425	-0.003402655761804067	-0.002236621688795324
0.0275767012966464	0.07324620122111114	0.03040085152499452	0.001473070453557166
0.01784118550218219	0.06451062644410453	0.03843574811310894	0.04045928026668569
0.02256615458764859	0.05765749835292306	0.007797380843208854	0.1051289869786805
-0.03045056609463871	0.08544249146396776	0.04302438981104656	0.1462833912115948
-0.004005131050240444	0.07573261786017003	0.02594181373715491	0.1915626374926673
0.004969845132313145	0.02210254908149789	-0.04463945784133708	0.0396167808673667
-0.006709840109356008	0.02007253203823417	-0.05234861721505345	-0.07187037102469873
-0.02701769887178204	-0.02412432341746423	-0.05259274946969954	-0.1397071056227183
-0.01950438801900966	-0.04222121593569021	-0.03640550143527361	-0.1470618980952279
-0.001065716767036996	-0.01215345928424575	0.01252712492843448	0.00861510882615046
0.01477556076065677	0.007744138360804036	0.05659702352182495	0.1521862815986089
0.01862794696380131	0.01078622921219312	0.1284959294123302	0.2135522283509157
0.02510565800891486	0.004862591179452448	0.1234437496959726	0.1369806690089955
0.02019629948281935	0.01349146170077183	0.04645121434350896	-0.2791131935325046
-0.006665541972615949	-0.01342619204461213	-0.01168306961136874	-0.3604379610367233
0.002293341833180541	-0.02747439049593041	-0.06723440091338997	-0.1783904834431287
-0.02006551745099453	-0.05899198217973276	-0.08795312882256959	-0.1087084153126458
-0.03109291140110649	-0.03863136077130308	-0.07772870172138879	0.01967823781220575
-0.02699144332670821	-0.02955039503286818	-0.02355531880243443	-0.0314736679869124
-0.02263587265884037	-0.03475648429115474	0.03029739694385717	0.05593606849270963
0.021263012758366	-0.06338011047147847	-0.01506759698212491	0.09772275423142654
-7.164416263208004e-05	-0.04197948808441664	0.01115773305347914	0.09028941018702163
-0.03361391782255547	-0.02581975285996799	0.04999351735258041	0.05283898637528872
0.004520395903362435	-0.02872420884476589	0.1014287793385283	-0.0847422949448759
0.0213576416202934	-0.05932444691096893	0.08641137838254224	-0.09459868870604829
0.04380382795405346	-0.116107889181836	0.01212445953802695	0.09056887453522436
0.03294730899167332	-0.1045605302136718	0.05169453938411914	0.1431423490897086
0.02446577221837983	-0.02333999439161452	0.1156034847986145	0.001155789445927317
0.01547394033314036	0.03571152684097376	0.01033403203242234	-0.1505007644220578
-0.02772068452275056	0.06533794696458842	-0.05298911765118944	-0.01782453161331304
-0.03669405592649925	0.09402152889756667	-0.05135512003248614	0.01744953268118066
-0.04245535226666802	0.09346476343410885	-0.06186127401601949	0.002070136673262912
-0.05080876292597115	0.07334977970153206	-0.05544757397425836	0.05362904277276347
-0.04256633301178308	0.05267426402935358	-0.0320115869415504	0.09511163448289578
-0.01721338641753542	0.009158941762446192	0.1147400776598042	0.1156192441879829
-0.04109843768463695	-0.03270360329803616	-0.02445971602750081	0.09437761730017907
-0.002256689821151804	-0.04714636446205755	-0.2074221487425238	-0.06955609737287835
0.05080875408537289	-0.0006021383405381074	-0.08323603325499583	-0.0858581439891304
0.06109665321787304	0.006794970783380751	0.07237919938629139	-0.111187603679452
0.01946595664732539	0.02501010766238943	0.1720051300977221	-0.1190131702733552
-0.007962772828454872	0.02214844072687417	0.1949807459350152	-0.07582656262784826
0.003288452218241835	0.01026856408878622	0.003560430634944053	-0.02889545256184939
-0.02244018698812033	0.01603284279987899	-0.01966599314733516	-0.00908206830173912
-0.03853938479634116	0.01078825897301671	-0.0104432191758232	0.00509172500509078
0.01438512355769582	-0.003657461109102416	0.006925793283958536	0.03920452267346779
0.03617330657279192	-0.02723669278126212	-0.01917883180308586	0.09192200550888323
0.0183867530986746	-0.04234268240550248	-0.05804158119942084	0.1697459391754157
-0.03240033947705741	-0.07817632676370301	-0.03153453527436125	0.2088122690850387
-0.0001083381298940942	-0.07189087741443199	-0.07201018803223116	-0.03454889350512293
0.01616663473244307	-0.01876411066346686	-0.0288994834743158	-0.0133519469601787
-0.08643520159335016	0.03866877498021416	0.05942751845252933	0.06825546867415323
-0.03969063527459678	0.04947862539470963	-0.01423072305616312	0.1469000550989793
-0.003467659195299632	0.04494862929439557	-0.06515829066412179	0.05430435790438314
-0.0009960588367234574	0.04329739360524215	0.05449984191742191	-0.2286817687603385
0.02406862712554362	0.06185145031495653	-0.06592475746200072	-0.2674620341742913
0.01925092507929107	0.06155845449146448	-0.0558983780068204	-0.1108540269384085
0.03558267427803438	0.04396010254410996	-0.04136479391763833	-0.03420194816804945
-0.001571400791713727	0.05470048242199529	0.008205893071721915	0.08894570126246354
-0.008738129760274389	0.02874298007957199	0.1235672583673811	0.06799735712887953
-0.03869500991697545	-0.00439311616640025	0.1598754057369347	0.04413560495627278
-0.02399143082788951	-0.01751806204643609	0.02019251178292039	0.04618721591359209
-0.04108982964885621	-0.03142670681718487	-0.03497120942230035	0.04327569335771662
-0.06267963899153853	-0.0466119651904439	-0.007366211261038518	0.01618876880482365
-0.03455275596850994	-0.06113828026879296	0.01243099714481783	-0.04603162771033549
0.01384977339432625	-0.06978149733798462	0.002065132242320934	-0.004778095569896897
0.01278254166912362	-0.07457519852240838	-0.03538409216786969	0.01152550219494112
0.006929217013164391	-0.04960354345731521	-0.03543108340013004	0.05405950151180103
0.05007922104218188	0.04152951812449236	-0.06543097355548598	0.01719724612254779
0.03574221617334174	0.06877749140876718	-0.1008662728648424	0.0210742604302618
0.04898315926531289	0.1048267501400857	-0.03462024875410625	0.1350209862244124
-0.008036951719644754	0.08846374004824002	0.02574631211544482	0.1521849390937864
0.01894484819611632	0.09324745388788989	0.01730527619250534	0.3008183386374298
0.03085307456509579	0.07322022867261675	-0.003253688406074085	0.2394850781986317
0.02948574545448471	0.06385970463974565	-0.02726518395572992	0.0006794718246176671
0.04370534070853884	0.051620952919195	-0.001068728166454964	-0.08425303758300259
0.01593869649289589	-0.01159802878016722	0.07901540627908193	-0.2851774652031306
0.02600483728032643	-0.04991844979074461	0.006662768169474969	-0.3175938640465648
0.06005650852893529	-0.07400924903255636	0.003927515177371172	-0.1960904122936719
0.002093087730237696	-0.03356004483555555	-0.01384293697312235	-0.1629112904622031
-0.0192618067509056	-0.02749299198050425	-0.05148416915879903	-0.181586866846606
-0.03350857368734862	-0.05729812450628823	0.01182752632503696	-0.1420171696796615
-0.01827350041529714	0.001715363094686203	-0.04991512114026962	-0.03880630494602963
0.0005099568377104998	0.01279444989831903	-0.07823881630539782	0.02544835169358509
-0.01566433631814516	0.01614889669612473	-0.07370614152275208	0.01786231817646818
-0.01360473423393676	0.0234807645404146	-0.07461888917715809	0.01684728774114782
-0.02719286083239565	-0.08128924701919828	-0.02160629258665975	0.02245798324494416
0.02136843924833366	-0.02472713046753882	-0.03129548985636061	0.1117536875659952
0.00567136275631709	0.005401940990487676	-0.008794023559168789	0.07810471116758165
-0.005003171350137208	0.01156343824517888	0.03752651488955548	0.1014122183990494
0.007587614174209547	-0.006550500424725364	0.1026757470379704	0.01015445560740355
0.01578181494205752	-0.03252433546526276	0.02132554007001933	-0.08232828671028573
0.01165115352948449	-0.03688805894984144	-0.06619833039090744	-0.1079168619846951
0.03001293657806025	-0.01389235266287608	-0.09773574980658205	0.009057437480766975
0.01781140075396899	-0.0158056440246803	-0.1455041603862827	0.07478760796856636
0.0260020737677564	-0.02105363157910228	-0.09379596342922833	0.1220053948093227
0.01133284364453713	-0.02966910106796055	0.01093730188071659	0.05400262821254367
0.01064515404994733	-0.03220220373910833	0.1116115841726203	0.05496997615949032
0.04556640474260706	0.008167349795932591	0.3083907191314854	0.09732155449861092
0.03669625182085687	0.001545673345455828	0.1413073252311248	-0.02358577516887295
-0.04117341959562229	-0.002304116627375056	0.07151863002634141	-0.1126006110265066
-0.08671243078601082	-0.0185170531878305	-0.002324617845009484	-0.09690499205983848
-0.07457493255535692	-0.05925039709738834	-0.03503212738927031	-0.04458873165922646
-0.005513935281983087	-0.02965842775442911	-0.07797343941916729	0.1659795062924424
2.108936376603833e-05	-0.04913492833110324	-0.08231112807106218	0.1385365911530986
-0.0340490702313042	-0.05940151692839982	-0.02763017801880848	0.05570050830804921
-0.02651478417354682	-0.02791041881648212	0.1479502553679433	-0.007514920339385627
0.009982002714082918	-0.0009008005858322029	0.2334347492353793	-0.1648029109818156
0.02729549493392633	0.01661338565589059	0.0184653860563706	-0.1947351366787668
0.03495486247848015	0.01301562004535198	0.04068241996843778	-0.06915429935691897
-0.003089333473667043	0.03559424805885317	0.1202678514867441	0.06609769856192392
-0.009394984755005775	0.07029727480687285	0.1038883957982338	0.07856900614818121
-0.02497409140958635	0.08060938125133044	0.03277655072568399	0.05873812103383534
-0.06083525041315637	0.07035717363780117	-0.04610500962210825	-0.04749774500838327
-0.02942669761168678	0.05656715356825471	-0.105178972708601	-0.0824644910895589
0.004316764531297453	0.02930948501413328	-0.09997180709283959	-0.01608891391769007
-0.005537551170394254	0.01246127162543379	-0.120341544722286	-0.02432850439703487
-0.02685507557612755	0.03495201683661336	-0.109925466681209	-0.02478865464675759
-0.02438007308682998	0.001540019491058088	-0.112248203252076	-0.007256219360149654
-0.003209619797241345	-0.03345666138983158	-0.04082662020783046	-0.008987896958898999
-0.003132326587148738	-0.0423940969772947	0.002877694545911199	0.05624779617681099
0.005797216505275528	-0.0663663796424282	0.1050493880462039	-0.01976925667425943
-5.801508704041502e-05	-0.01992556485820681	0.07615426066996513	0.08452766520877461
-0.02524026671553697	-0.01415223659046305	0.02228334143251262	0.04409182589984897
0.004795629306869064	-0.02399004959900325	-0.0432007355480364	0.01917785265469697
0.0361220060194497	-0.03571026918100578	-0.04915391063732567	0.104271814320436
0.03642123356335474	-0.05222904309903307	-0.001748445416711901	0.07084257195709658
0.04651464939021789	-0.02845339619858676	-0.0130635155402888	0.008287486353573138
0.07676713280281974	0.01705309445380938	-0.07638738402522484	-0.09937026223272999
0.02796809727591043	0.0376510571626742	0.02679317903972594	0.003978039117810216
-0.006719361044526733	0.02048446133309122	0.1481118969317657	0.09373023882965904
0.02231375663902068	0.02404938811591852	0.09366068255706077	0.02897949168058745
-0.0179708196646723	0.002416905775483957	0.02795244675389171	-0.05922216198801913
-0.03521853348232836	-0.03798712536170737	-0.01881772912936341	-0.07209885473140176
-0.02744402823968282	-0.06642790983238729	-0.08777384842280861	-0.06842924396538576
-0.02719236726745661	-0.03999649899282378	-0.04486061870340394	-0.04813368433227216
0.005197127763842409	-0.04139829479979938	-0.1178602512856491	-0.01831910847660953
-0.006307102322642984	-0.02645761732219952	-0.002600877431287064	0.03585382772220495
-0.02138614802417989	-0.01666443577801008	0.01760535565143656	0.0888944419259021
-0.005697989696875411	-0.005346216001359168	-0.02918262496548846	0.1341511686926669
-0.004284273332522829	0.07548313759197108	0.01563378066557228	-0.002860825223414272
-0.007340920220717755	0.07934730607912371	0.0191138132345528	-0.1486873326322922
0.03352806431524624	0.1165182079975313	0.01992704943728993	-0.06425480784051581
0.06106723102037476	0.1057837941183405	-0.0449505593285335	-0.05329214771404071
0.0717359799230038	0.1228861686637926	-0.1026847894660947	-0.1030590953312327
0.05749850642395657	0.1124339962349377	-0.07113256705278104	-0.07345918898631974
-0.04588551543602416	0.06400348772465311	-0.01668015461604551	-0.01256990279875083
-0.04532979511691424	0.04086543354795492	0.03649165694779567	0.01381025319878723
-0.05829008291398353	0.03469321514246172	0.09632935156490437	0.07278362112811651
-0.04859733291036835	-0.01122220214450062	0.07914935092004964	0.08570489097940105
0.003299595923129329	-0.06186242915900359	0.0344522188669263	0.1158112264901341
0.01132263875007264	-0.06463909757766037	0.01823949366653429	0.04004383227112821
-0.0001031925309108678	-0.08418063201248989	0.1642871791649207	-0.02084347588416899
-0.02663694096696945	-0.08737259056491825	0.159560667474997	0.0025971341296557
-0.04018322172221669	-0.07190122067576613	-0.0291586876308992	0.06590972831444267
-0.01180459393086975	-0.06064585616620631	-0.02656690503106559	0.05663347951199781
0.008557327374589772	-0.03310133794255497	-0.02676434303414689	-0.01810774149313516
0.05001604244370111	0.01488751199928762	-0.1182013736147887	-0.1010558401163506
0.05591099204839387	0.03150227115785135	-0.169558893763883	-0.05319180427291717
0.05140409508649783	0.03628072748554474	-0.07261214317482598	-0.0452691327730094
0.05939510333939663	0.01497413911137056	-0.05085963275708533	-0.01190639327557684
0.04499279074496264	0.0369464573502835	-0.07657551220181337	-0.03782977088583993
-0.01132454331873694	0.04041921822499429	0.0953381258687437	-0.01066525816812113
-0.01637934316443259	0.0296909676604424	0.09673291523273542	0.00299459357123763
-0.05556612701351564	0.04990543218435049	0.2097594059786471	-0.01470494350999638
-0.07627423479514731	0.02679800537387381	0.1782648251321613	0.07486440386121369
-0.1170637746062568	0.03393699706585903	-0.01362991177103204	0.0008489455772532491
-0.05360364148599591	0.0146941111646163	-0.08441053076136668	-0.01651641507975913
-0.04367115712501395	-0.02812859525941754	-0.01808157050991736	0.02866994750519436
-0.03021282449148873	-0.04908093707227417	0.03825891487806807	0.1283313364348642
-0.01099181405963771	-0.04187972877106314	-0.05583423870655575	0.2302346223641712
-0.00255592245577979	-0.0213386070191756	-0.05285230582239212	0.2754698367962587
0.01652445977224084	0.00590826164608748	-0.08762260492219565	0.1997506448869781
0.067463102264207	0.04562738431136153	-0.07083344638294048	-0.1275206195915165
0.03603762006655514	0.04691081611758244	-0.0842187014133117	-0.2500133067156912
0.05524826252677483	0.05141915277165416	0.04707861275328851	-0.2159433561537017
0.002262866394946752	0.00111945861358077	0.03575349008876044	-0.1679558509102176
-0.01868551656588805	-0.04378309753040789	-0.09380760879296218	-0.1050625334508769
0.02181866086603474	-0.0209667651844933	-0.0426220681097802	-0.05740157696432989
0.04637622354071786	0.004588966018782894	0.03127743069863832	-0.01704392728732729
0.04072987478728821	-0.001476814028629297	0.07297559816871653	-0.0327816537649221
0.04509502300154635	-0.01507132262461233	0.1297502100809041	-0.00660030904453608
0.03561727828836479	-0.03848114891424573	0.05150038384632317	0.06942984696803647
0.01282416841810816	-0.09063528918828209	0.008851398576441126	0.1336598408669237
0.02041568630887151	-0.09077313781126881	-0.02844691280572822	0.06428930810796801
0.004614787115263597	-0.09552292256141563	-0.04430330243066618	-0.01344496307963377
-0.0008877996691663824	-0.06819954266008249	-0.07198836771855237	-0.1497693704074726
0.005776804214608207	-0.02789614735767379	-0.04319240334873181	-0.1266408410921377
-0.01701576400557605	-0.008471341059435625	0.006729321969041621	0.01097781607957642
-0.009450563097728831	0.01422627633835241	0.04919003874662391	0.04874658295603856
0.004285080698119455	-0.008195254591948451	0.05723437306925267	0.2871547184268807
-0.02987879226858264	-0.02922620860112569	0.1003133439177522	0.279885860779041
-0.0282891334843866	-0.04795895117580495	0.06280899689370155	0.009807504791701584
-0.005620070897069417	-0.07240131596666755	0.02615788043473332	-0.306683282952011
0.03761641331096999	-0.0268725386260351	-0.04298013826128105	-0.3452330790817622
0.01040083876348781	0.007978498499240632	-0.06981487765902485	-0.1312425947633608
0.02693851412339027	0.02054475207725024	-0.07730254934589545	-0.0621571513348242
0.04023463987487556	0.04068401477322495	-0.06119195721534118	0.04880771987462534
0.03579332030287453	0.05820350842500869	-0.05568474105556911	0.02856296184946596
0.04929400085743189	0.07626832922541853	-0.07296743579745323	0.02465232690843442
0.01524461705529406	0.07324807649376748	-0.06583643916189362	0.01903069321475668
-0.1119803635509456	0.04152333117364074	-0.08237680659158383	0.05455134186986084
-0.1213453947077451	0.0239161122995428	-0.1293212674731893	0.03720247370517459
-0.04922700548161299	0.0315108436470126	-0.1248627138584901	0.06245736814788794
-0.03414357732210084	0.03708106264436663	-0.08839989766788202	0.1028777772454675
-0.04282176975440889	0.0003148021489923142	-0.05907049067566027	0.1656842465636888
-0.04050707675940018	-0.04183443106887104	0.009190476417109903	0.1597511336263681
-0.01639778432655397	-0.05198014820687846	0.107929248816971	0.006883475654536514
0.008449443393965238	-0.002839134705075607	0.09766347503697431	-0.1700528540038739
-0.009222744251668918	0.001788453271911808	0.05284028925982574	-0.3227488758311623
-0.004317979881196228	-0.001516229789503692	0.1642935418441068	-0.1149085729399928
-0.004160797686686955	-0.009245771317074745	0.1074132320793315	0.08980066164173549
0.007087933987292949	-0.02332918828245556	0.005172924474690982	0.1583824935478224
-0.01683147543316971	-0.01754353845730199	0.09915656709606364	0.110576481934793
-0.02381365048801259	-0.008753788518738887	0.1305231728919159	-0.001578465920401191
-0.01706240839890059	-0.02823116512582865	0.002886277676909191	-0.01906460883438684
0.006871448583634914	-0.05021467177021537	-0.01469987508761607	-0.00599766314006725
-0.01733913620190693	-0.05901072969618355	-0.02623321706024463	0.08718206511103987
-0.04565343479014795	-0.02623644436063777	-0.09290054146873437	0.1150865990571148
-0.008968495779941334	0.01401811554990986	-0.06801411305584019	-0.04910104529660474
-0.008604431361792857	0.06050811912029617	-0.002549183404706363	-0.1559545238502119
0.01095051144588026	0.07647425463923781	0.03949134703701191	-0.08906359484281533
0.02324444203974796	0.05808403917979866	0.04476294348856859	-0.1150107770064528
0.03785967631951859	0.05795989275971032	0.06519484789658282	-0.08405423892148914
0.07204105992377242	0.070974459056418	0.02620942368611145	0.1190921431539371
0.0835168776812466	0.06798874382957883	-0.02433067965271231	0.1141656486660966
0.05408512751112456	0.03867843403819506	0.04843894033625983	0.1142206331300562
0.03945111737483496	0.02430598967617064	0.04536669892445426	0.05383334455877514
-0.004659075159534305	-0.003917371428222144	0.003485399402178561	0.01544941113872618
-0.00729670728916868	-0.01359840836972591	-0.002568635767895044	0.06074966036755845
-0.05290077813817733	-0.01932233138866625	0.02069974511284068	0.02137590526691074
-0.08043291755777954	-0.04717920504010857	-0.03769774031615705	-0.04676088610024427
-0.02776472546516197	-0.01712120981481894	-0.07086716384879581	-0.004116754298587513
0.01589039970339043	0.01641775140901259	0.0934754992470196	-0.01531131374699683
0.05910536491326006	0.0378558894617501	0.08787784597548021	0.05945922250922319
0.05560143454585406	0.02244728890375788	-0.0214452490584336	0.1724599429218371
0.01528519236846862	0.01555450618972359	-0.02043635782969521	-0.04210811705885924
0.01606772344888908	0.01986835869049775	0.008576459529274685	-0.279116149301946
0.01677044613685596	0.009529366829229776	-0.02811876172152147	-0.2277229155826733
0.07126986875273232	0.00967553637963604	-0.03456414877065716	0.002178170208649309
0.05278248986953393	0.024621403082963	-0.00443789760603722	0.04182573351990578
-0.01029912374341557	0.0009647176889847386	0.03625782983275636	0.03962905060503798
-0.02336975918495098	-0.01689828866779362	0.03513594472415747	0.02864271030317032
-0.002291901782916411	-0.004314072968761005	0.02144521627387823	0.02204711871646533
0.005633363689096831	0.002299046582974892	0.001091879457935865	-0.0228783912896883
0.01843389186457254	0.01543470168220998	-0.007803583687879768	0.007544983821923864
0.03732258037616783	-0.002299800698583967	0.03628531942921488	0.03075889929654268
0.02795962806426244	-0.0270419780492474	-0.03128031623338139	0.1988130593379029
0.01461840893309592	-0.03121479332821429	-0.1132359866905298	0.2253257531643716
0.005851173226173719	-0.03063791853803879	-0.09869616781902918	0.1220983609164984
-0.01467073239251921	-0.06131269242281578	0.08518871246470654	-0.0959091054781088
-0.06280541583769271	-0.1032461086195963	-0.02190402307616932	-0.2470215877560012
-0.02104400926184268	-0.1203304993068659	-0.08613171283941864	-0.1128940698738356
-0.007915640735827784	-0.1284115879840958	-0.02827395145730368	-0.07668559270733628
0.008107301101961003	-0.1021582486187817	-0.04106876684905734	-0.1074550401215763
0.01911743500503895	-0.02437456910794466	-0.02493289255161056	-0.08438324648808825
0.03501499034869975	0.01304563976317296	-0.01975085126246427	-0.04730630037640515
-0.005445133117767747	0.07870105421763421	0.008102814773500354	-0.04387193071859832
-0.0115863869902069	0.114788272031366	0.04202472210331393	-0.03957954924023532
-0.02409632987126711	0.1499902802363931	0.05306760665828321	-0.02954115432721412
0.005638789593380304	0.1586312599335717	0.00230740644804244	-0.004852848784583258
-0.01165079343199743	0.09763357506272453	-0.02687004844538324	0.05664337061632425
-0.08924116079519809	0.02431008099900544	-0.06481003816663125	0.0955176652345248
-0.0461835264752379	-0.07763166502405697	0.04549931020281072	0.09357320004252143
-0.01255671106972037	-0.0949828039148063	-0.02888710289864046	0.01699220474116467
0.02355353768198806	-0.06595299592495558	-0.04143279969019344	-0.01438999432482603
-0.03189724931765544	-0.02751286342993707	-0.04451742500253668	-0.01665661036713967
-0.02857877491427317	0.004376975105957339	-0.005595804755892243	0.06703505545569498
0.01578452865832601	0.02458436504090009	0.01247783331800543	0.03608196521472171
-0.002901042980352239	0.03739171952663935	0.04377128239974788	-0.08386264485664853
-0.01106046210840816	0.04891363465223404	-0.01740572721208949	-0.1264421196075504
-0.04232766192634506	0.02556182341002769	0.008001885227677662	-0.008435988236188484
-0.01070210857060953	-0.05866156043400655	0.001436786808721677	0.0812783474414419
0.03635179605078883	-0.05050301777631636	-0.02160309470930406	0.03988398314967752
0.02677001154807294	-0.02239380756912075	0.1460398410412806	0.04497276776609706
0.03897266115415505	0.02011035934561411	0.07465759450921779	0.01736859362170413
0.02294093309672563	0.04788381415626224	0.01673720825532374	0.04925373562718115
-0.008727512057932325	0.06646287062822737	-0.04926505182427208	0.02838118951174184
-0.04822381316098859	0.07640557401893767	-0.02931375920800265	-0.09281122202015699
-0.04218576408853279	0.1229695128359153	-0.03547804207609617	-0.1210716584014976
-0.06629083037747355	0.1140430581710867	-0.02383233538730792	0.002757671710183412
-0.0796386974476435	0.04894820421136463	0.01045411105633352	0.05985073442713489
-0.05693409967944263	-0.00556009588516878	0.06949243191540701	0.1305345120199773
-0.03669950525298685	-0.04735145764923025	0.0181402901862045	0.1302777115515966
0.001014651362914715	-0.07799756877779306	0.007264300405782325	0.06599983598483501
0.01656460476973762	-0.08921448464278917	-0.02818167022563975	-0.06627505841084949
0.03389544082598352	-0.08773853902486814	-0.04972300305114103	-0.04439565097225501
0.02286610239953833	-0.1119416467873446	0.05526816628699426	0.0429881889636681
0.004634558255621384	-0.1194510478635489	0.08433298050409108	0.021638225042414
0.003121838009186517	-0.06874278524743073	0.002951761740170749	-0.002690888858651601
0.01990717228400951	-0.007148309538662859	-0.02441914622104707	0.03512711694945328
0.01794071798612694	-0.0115127445570231	-0.009161134294061169	0.1545919591224474
0.004587604639090098	-0.0003306791364458609	-0.002589288073515235	0.09129630847581904
0.005579185351711495	0.01368622084838838	-0.05833927896375875	-0.07814591004310498
-0.03468021873904038	0.02526214087925727	-0.08456220755999351	-0.157994689878573
-0.002097815205932729	0.02259421796944396	-0.09524137928399419	-0.1040781535997639
0.03575517127049555	0.03744620331516774	-0.06858639726567332	0.01736727023976771
0.05801602556590255	0.008912950445361213	0.03008144776607705	0.05043072463102121
0.03241163360317972	-0.015599153333455	6.020541601845661e-05	0.1857092321084674
0.02304944897713963	-0.02181970044518047	0.01733534106080823	0.0583890761546137
0.02035469307592412	-0.0409473954734685	0.04731084416664155	-0.1091919705553668
0.001288674004986462	-0.06651553633460934	0.101011940190813	-0.2559401868720254
-0.004846671772807848	-0.07230914869512113	0.09963308569688632	-0.2311842476956961
0.009539933786381195	-0.05441252679944043	0.08706591477857535	-0.01138942453381491
0.02826836086617434	-0.03910789331985436	0.05642184069432971	0.0549732054475566
0.0184520139939861	-0.03476281733810564	-0.01668299604607242	0.01210765197219313
0.02150207267009605	-0.04441084709377571	-0.06593564739589926	0.00105149867317179
0.01504236124078365	-0.03872906887110225	-0.07030216413436088	0.008735712337697781
0.02711813944550579	-0.02541844129204559	-0.06149003857980486	0.03224329735159218
0.024771036952456	0.006541191699292321	-0.03783251594037488	0.02278510606327634
0.02445513878044016	0.01812725141304955	-0.008449551898151747	0.04080384131317803
0.007578972015747825	0.03191749923987997	0.04611806984131282	0.02663802799976558
0.006474943926637128	0.02912029821031039	0.04851339412018518	-0.03009521087532281
-0.007231644197523052	0.01651290885596465	-0.0133056976621911	-0.00752986033378809
0.01629617292945296	0.05297978801083158	-0.02003030521095951	0.04730809156750327
-0.01276847754321856	0.07266224344140017	0.03542433297446593	0.07941597675723804
-0.03229130881404088	0.05626353642489473	0.02300888645810521	0.06908500977427587
0.006903502715573703	0.04758989000302478	-0.006955115717199146	0.08293305131130066
0.01208869882362306	0.02808605719623663	-0.02098475036370701	0.07474496885941775
-0.02425862902671852	0.04068671475857183	-0.04464907225918577	-0.08996882871304503
-0.04129558077572701	0.03568897837343683	-0.06030811737629831	-0.08992831626319858
-0.01270333069180585	0.05444440610763557	-0.0729274251929128	0.05197161372327217
0.02377466954876944	0.0835088680244593	-0.05002614035688508	0.1588201623387455
0.002820422873707642	0.08246908030661902	-0.003898061040648533	0.1211871173491047
-0.07348559731704223	0.07733242443995035	0.03538498977768605	0.007707117346665075
-0.06048763964215255	0.03982152643848062	-0.003807991478079312	-0.2657405044073619
0.02280344343994996	0.02576875596419237	0.09182835316451365	-0.3319396869395078
0.0335342528035794	0.02455666596177358	0.03066314893478796	-0.1479639204431961
0.01772572596740491	0.01750610308244804	-0.02776528171609194	-0.1604909206498212
0.04432460425056819	0.02513474073208084	-0.04500785257080003	-0.1016309513156479
0.0464835531430282	0.02756680334869442	-0.0495477169533616	-0.02914906648421225
0.03452638274349608	0.02851900528443355	0.06079988082427593	0.004165427656305468
-0.08441775724715769	-0.03392644722376622	0.05505586638938474	0.03428511263128606
-0.07316465577364001	-0.03086064764330398	0.05731160919578832	0.09470180616358448
-0.01366882076129068	0.002195820601903467	0.05293961808298613	0.1127813043472634
-0.01669119019557341	-0.006311641443412962	0.02432696117474714	0.2154398658011933
-0.002282929024884553	-0.0108237620524443	-0.02120266174917461	0.2598545181779832
0.007526884871520235	-0.003985478215632491	-0.03806471664134516	0.08720295274669423
0.00963655986538201	-0.04902415716904174	0.001931148530593288	-0.1261319983427666
0.0133095096528552	-0.09473092045660525	0.04088792919735879	-0.2887026617175343
0.03571229227943563	-0.09449455581566973	0.08719103069260627	-0.08451930350741224
0.02135665280025887	-0.04100115305322757	0.01941573796234602	-0.01791650500087034
0.01209924512682838	-0.0225008152541974	-0.0008428657074556771	-0.05532735749078298
-0.02730649285094025	-0.06388523561425329	-0.02736959421829244	0.02397879427726207
-0.03800039187945716	-0.06608989390728912	-0.04990734002115043	0.04095628853033068
-0.03669861254545349	-0.02750135179752934	-0.08644475277389453	-0.004823440735122838
-0.01652768468077412	0.01037671141659616	-0.0247337997899082	-0.007970871276100206
-0.004974427933893156	0.02372789450406627	0.05386455250469796	0.02814017833856562
0.03212364094045632	0.0445751805574015	0.01437729291413337	0.05254595445866358
0.01172887581467956	0.05204751682948615	-0.02782480746738304	0.02193415672751683
-0.03414579122004101	0.05179921366946123	-0.05387530849639218	0.02405226311229235
-0.003648822971459579	0.05088814683508133	-0.02131715310462187	-0.003832188650893445
0.009566431784760644	0.01541015495529044	-0.004958498294445278	-0.00194238712654068
0.00565928260353603	-0.00335705116464753	0.006567164377708417	0.01089430067121874
0.005793466274903324	-0.02481812268921861	0.01116499537578787	0.03252690377219601
0.02028645831657521	-0.03021047509293979	0.01609525969888394	0.05883098903885816
0.01619622325002525	-0.02817280090439526	0.0128786177962142	0.08240848299874404
0.003521431265902045	-0.04130437441350957	-0.006091454558553849	0.09931275319440833
-0.0103544876065246	-0.05119782986979085	-0.01440447595994682	0.09345019013255705
-0.0472234798927787	-0.05486452894799219	-0.01469106968009015	0.02020239123429935
-0.02993678368062556	-0.04045752385456267	-0.03757865706256375	-0.05084617458385179
0.001800684555255217	-0.0282897935589754	-0.06298070938703773	-0.06017386046932963
-0.009591756745900449	-0.03476287906150274	-0.02307826653712048	0.02069690794560335
-0.0431820364154611	-0.06057447892604689	-0.05042637770208784	0.08706976917165533
0.008606347241284777	-0.033483009820074	-0.06067392330782279	0.104429504407199
0.06213050073957846	0.0076969233009224	-0.01449620505553739	0.09977061267172953
0.08619693482617477	0.05696372023901482	0.01753176910479564	0.04109953494884554
0.0710524675363205	0.08182920977584544	0.1071030210874731	-0.09077276936535882
0.0489045521445191	0.1100892758183157	0.2347182585342447	-0.1055323822757137
-0.0071047998019266	0.08882323389647206	0.09055840436757927	-0.08682139997436444
-0.004905074076497601	0.06017068403915453	0.02804745627479389	-0.04203553476330318
-0.03230188532939415	0.04005005083462162	-0.002149399857748094	0.029654420480569
-0.01463075450439171	0.01858433769348165	-0.006520338469739838	0.1086345719681471
-0.008277372360532489	-0.03140955182813188	-0.03319260004291805	0.07038012659177036
-0.02987493251095786	-0.03811496632026126	-0.06173605530287764	-0.0739047616695226
-0.007016211082960759	-0.02524216349980908	-0.05788999903474306	-0.2194524867992302
-0.005908127914346566	-0.02469270099829132	-0.02618187539632492	-0.1187493683197523
-0.01116599941282158	-0.01079047578457233	-0.02415628894036926	-0.00379534410389093
-0.0232111636368792	-0.009050661219836213	0.0006496589430003444	0.06429971999965572
-0.02750421320423718	-0.01644282384945439	0.007878592639205879	0.0636085039131464
-0.06198894794526985	-0.003890126490133131	0.01248497497403591	0.03662784028090398
-0.02756779512006067	0.0305273064615998	0.02895198291333596	0.1128653478663936
0.01884850430387206	0.04100670726345309	0.003033249988912561	0.2121688728453501
0.04658659201685739	0.03690517603805465	0.008375499574419853	0.1306576878328516
0.00975025582193083	-0.001731187220195385	-0.001180342711773638	-0.11549207339425
-0.008072906403483368	-0.003679684857250298	0.01996988163159934	-0.2602613722365896
-0.002259701119088256	-0.02284686352580256	-0.02800777750314333	-0.2254693817313342
-0.01461589702475078	-0.06147046226457666	-0.03512014745207093	-0.1580302329786456
-0.01111425891733717	-0.09027950509808365	-0.04851056819715686	-0.0815273885798605
0.005318181251750358	-0.05612105145767595	-0.06656763853970603	-0.08122412163336888
0.01346034491237406	-0.03779452795438539	-0.02929997877703308	-0.09632285883081695
0.009821479979324638	-0.02989566045723329	0.1231434575441525	0.01397201568919599
0.03803121009621521	0.002107977959001479	0.1570117776842561	0.08731742112032397
0.03542281393695194	0.01171923854021154	0.07410260803953851	0.04484321986866825
-0.02695753346484136	0.02855830563565529	0.03821577864271639	0.002423069287937994
-0.07235399893390496	0.04291787095696178	-0.02026414265113181	0.03843056015708871
-0.002575368710139749	0.05028760936996808	-0.07206719767991346	0.0817108977954283
0.01374318229610412	0.02464910652153456	-0.08463345826649855	-0.0337045210345418
0.02611320975953992	0.01872632283436518	-0.06374461402053293	-0.05382134585422274
0.04814969179243721	0.01589199311845017	-0.04929382964418365	0.004034644160966392
0.009946115070114748	0.004358283181061481	-0.03898436341318164	0.04464763553349484
0.01318657991696495	0.005889634598646287	-0.02169924720900297	0.02107782641156543
-0.008865989240701377	-0.03830066100377889	0.09508287354980981	0.0004802484274559262
-0.02384322069908955	-0.03637244295554204	0.1331311678269137	-0.002056107841832194
-0.01439583635879713	-0.01430894053713489	0.04175389136409313	0.08412777787235431
-0.003976707959903535	-0.01499444012125985	-0.03230417369583284	0.1011912593424902
-0.003934082879699614	-0.01538327600578181	-0.08724989979767366	0.02717179360763684
-0.003195304819221589	-0.03618859820874395	-0.08514476761896363	-0.02234009018544017
0.001708705297272075	-0.02263678952982622	-0.06979120664337593	-0.1162121630679886
-0.01227392771089452	0.01279934220830728	-0.06976460647373398	-0.03182439502869209
-0.01386165242055102	0.03178714892899268	-0.0894940855199759	-0.03851937296024414
-0.01008781239316755	0.0713693208005015	-0.01433048338373673	-0.09923555706641377
0.008593802072498234	0.07496229044753641	0.1020443054224209	0.01158448932324435
0.02609524542972146	0.05128832810693897	0.1314832892361262	0.1515052881010184
0.0262963620688151	0.04840602760549036	0.03091439766009771	0.1085152803549793
0.02202227980388823	0.03914844897323506	-0.02010854720093982	0.09654630687094065
0.0233097816795015	0.01868214343578382	-0.02962095571028119	0.02533636071428507
0.01383728199489927	0.001484058902959435	-0.03278363728561575	0.03447718877425392
0.04995795974888036	0.0005663471680977828	-0.01928347169475005	0.01606011174962959
0.01347909457707619	-0.03932029292853846	0.01307347727580077	0.02879454898338238
0.01569133882704663	-0.03835786632134582	0.0512342047282982	0.02280823055923706
0.0006550918455814991	-0.04040077331407415	0.06695137913016776	0.03100848178438867
-0.01808781152041092	-0.02888071540774381	-0.006498052300208757	0.03779602953888819
0.02792063673559171	-0.01721398041145936	-0.01517730341303756	-0.004151817989364424
0.0209068865345867	-0.02259259838117348	-0.05319048941174353	0.06558032459552698
0.01309121803658344	-0.006211761562447966	-0.05185031083134951	0.07433566886901785
0.02359301782100383	-0.005220133869060377	-0.03301592088515626	0.01098426730843193
0.02665129032115725	0.01904317228904344	0.02656378724336201	-0.04274902642133596
0.04117931254291241	0.03341530787214329	0.02220034143105181	-0.1016322270160319
-0.0001817079094278397	0.04764390786946678	0.009230263448734174	-0.08828586511152414
-0.0655787078634517	0.01020378262333223	-0.0155640570001737	-0.05654732873473706
-0.05610853201689856	-0.01376714720623132	0.0346901521375241	-0.006940938489659563
-0.04915344855180586	-0.01864633747048348	0.1378398262153171	0.007324765011016149
-0.06204798738872767	-0.006651242767747379	0.0433611254588754	-0.05638285416583278
-0.0299873650014892	0.008578914697460032	0.02311857762047863	-0.08520066416989228
-0.02707389273613615	0.007813546127417489	0.01082544745460863	-0.06946624780450895
0.04318551435035917	0.01741583914311399	0.04727659006613544	-0.0404311119250283
0.005622360353567901	0.005553968848126322	0.02172890145642505	-0.01175525235194146
-0.03487770839534199	-0.03355561495402207	-0.05577113633192136	-0.009568401010130215
-0.04353147293496027	-0.03221044162993716	-0.07430910925557946	-0.03618657253208487
-0.05803946982860775	-0.03898184490478424	-0.09255173161581204	-0.03228210185368226
-0.06937212269127475	-0.04115920894567879	-0.005571149608544031	0.03425145030583556
0.000226783751656028	-0.03889441831002703	-0.05085818361147103	0.1520794668501738
0.0007533786878947299	-0.07950404778389231	-0.1053417718737816	0.1272644803860763
-0.02190264683686901	-0.07617640946847745	-0.07711096896697593	0.0241973173687515
0.01017938610091785	0.01965719257351191	-0.0452781691303657	-0.03697505988735995
0.01615381465956124	0.02289518460955523	-0.02156256896642708	-0.05436647490638413
-0.01687521695067025	-0.00222993481163434	0.01079769400273638	-0.01952069600633465
-0.01718476838021332	0.01761796926755897	0.01104521100004622	-0.08133340233162779
-0.002234328195396324	0.04697223397496184	0.05186630515777448	-0.08832599894099971
0.02775738452043872	0.04937552939349101	0.1964593830648526	-0.01662684733580913
0.05577902859986388	0.05353220179432942	0.226175830813278	0.01026942061156411
0.05411867479366334	0.009178231437495001	0.1122127008770151	-0.0289273699604964
0.0305030804899908	0.01181800615144409	0.02332026265990847	0.01679813475137933
-0.005524032081272047	0.09011120472609287	-0.01926003044334628	0.1548072553459044
0.002439320921879705	0.07362057353957416	-0.08251666812024634	0.2037888936333185
0.003582600043467368	0.03900063535977046	-0.00484101082519955	0.07380245943185872
-0.03109459495877123	0.02319236716284903	0.04449104562891221	-0.1087304371930319
-0.02621627761361876	0.03414578347369747	-0.04635083225492437	-0.1765542035629309
0.006054469135799125	0.008969685704234454	-0.08911514016643919	-0.1017450724670623
0.007350907682743392	-0.007075062714424537	-0.06884682658769566	-0.04755133519107411
0.01008899279937833	-0.008869308877867374	-0.003569621537879975	-0.01955081831703601
0.01840157693769961	-0.01956019711968349	-0.009738864124586431	-0.01716272033555762
0.03659941485898503	-0.01284770977823581	0.003452350747547604	0.0226327454948591
0.06295528749423727	0.002394737395642567	0.023671011031873	0.1095249700107976
0.04137985279278166	-0.0214761090338914	0.04714121060615491	0.2459873405549976
0.008086835926082548	-0.03509336438563556	0.01629621067776777	0.1355414990361873
-0.02494179457450783	-0.04049266356067389	-0.005265137193398064	0.03300958406416601
-0.03302722912781429	-0.04438166083405357	-0.02675682893182745	-0.1778732702127428
-0.02747350786973725	-0.04267082824669272	-0.02827013231025126	-0.1478534266399328
-0.004106111608232112	-0.03751074311497982	0.02782876226929996	-0.01222349006753659
-0.007663318176613691	-0.04190792945467558	0.02703228390403917	0.01921162744081296
-0.02751723032789051	-0.03866174885988333	0.006842394234499274	0.003485100475072811
-0.0287175023497048	-0.05160811405648956	-0.008593193414300636	-0.05809469334157344
-0.008113082420993177	-0.0588449403389231	-0.009288301553451275	0.01667966804157121
-0.02387846275172941	-0.04731782931735201	-0.02720561716713928	0.08668629034695245
-0.003553870126752785	-0.05405355166728437	-0.05955826282065872	0.06981038356566548
0.01319360405340768	-0.06995353825079649	-0.04454048169778142	-0.03841749220766259
0.01651314003055797	-0.04308431788827249	-0.06484159096404053	-0.09231842855490092
0.02252463425511167	-0.01377642300632535	-0.04007783467241677	-0.05732714285791207
0.02482955103200041	0.03228230616729007	0.03984748302101632	-0.05430150393314744
0.009689270324341784	0.05573152224830299	0.0677323101928152	-0.07814496513258096
0.02515110277766805	0.09766983537017992	0.0196690262243452	-0.03625626192363122
0.02340672889311448	0.1114913017123577	-0.005454632743957275	0.005479368129731804
0.02480524625058015	0.08369135538714961	-0.04247922970774956	0.006078372505537568
-0.001717425810062128	0.06360081277374056	-0.01831411760241553	0.03107917134787432
0.02227623742727943	0.09186272361623334	-0.02252593562472007	0.04939042198187171
0.03864410297064122	0.09114592186234308	-0.03242715407090455	0.04630391291068046
0.04107902762640639	0.05678177600827599	-0.02125160366413638	0.01249736134830149
0.03282465742948051	0.03691106404475922	-0.01701358232652595	-0.006546901000310003
0.02970172201877343	0.01470336556756177	-0.0035519568460436	0.0001988350477624484
0.01829154023649452	0.001753474870698735	-0.06615668237177501	-0.01653673650131719
-0.00744598140304392	-0.02217836688127821	-0.07368025517534081	-0.01480529740699929
-0.05138662757339857	-0.04300652237224246	-0.0488935302949875	0.03693026406201445
-0.04164524699535321	-0.06671552625472506	-0.01394480597805986	0.01436578017231021
-0.005515912221973884	-0.06926049132848171	0.08747098948959743	-0.02822522437595806
-0.004826720344902499	-0.05423928732531957	0.05240632568253668	-0.01830301420294031
0.00197450232880207	-0.04984034083747353	-0.08125625004235225	0.07174336433465518
0.008590845282310836	-0.05856158495797048	-0.07323404391534008	0.112684263385689
-0.01650070265085244	-0.02754381248170271	0.0143176392227333	0.1333868445922657
-0.04415744428597092	-0.03596243956990121	0.09327681008474167	0.1176885736782116
-0.04418286804504899	-0.01719424523710606	0.1949447181419511	-0.0008339203793744776
0.01406824568249736	0.003485745253136108	0.1444695386180895	-0.125371501739033
-0.01322389440165867	0.01206780204559701	0.0325750801204246	-0.1739805889621081
-0.001610441388999225	0.02106290327149127	0.01979495435898301	-0.06471367482926425
0.006464068324022544	0.02751622204062737	0.002700860069794811	-0.02056627028631058
-0.001337095188198767	-0.02602408015762184	0.07906220672166428	-0.03468788846821741
-0.03788920953975379	-0.05185625241467498	0.08599275289357362	-0.01083708130830055
-0.07683825356166611	-0.03224963152549897	0.03813040892217169	0.02713387839358302
-0.08446514617836788	-0.01397474743409331	0.04145646901249723	0.0977080431809884
-0.05217814501931107	-0.004202494020988596	0.02619007185428748	0.08458895404403262
-0.08307211113789446	0.02777555142097616	-0.0312350199823785	0.0362159926753802
-0.0361273911177117	0.07353104120126375	-0.04363121830010733	-0.03531732643785646
-0.01251109824139531	0.04850836965118892	-0.06385577213244181	-0.0241274123962225
0.01750710674389185	-0.01320746653662967	-0.06110385123948087	0.02760785832128106
0.0336760557770753	-0.01548475502734764	-0.07165440588670977	0.03195314773863454
0.05208389821592541	0.02001135874054206	-0.06545942209583711	-0.02488737491340908
0.08318582620123494	0.06810300775985503	-0.03031683545761533	-0.003969024298230728
0.05872739735011705	0.08887328426426525	0.01133641296328831	-0.01605658805372352
0.04971749090669476	0.08103934131363713	0.02132764836579177	0.03889027746423396
0.04504850262719649	0.07511573370460406	0.003479225684550681	0.02322197086049015
-0.006506291539872026	0.07060154906684454	0.001061092558363331	-0.008651129997420555
-0.01733950213985574	0.06169402959585409	-0.04069861076908116	-0.07328989748033367
-0.003527737362722673	0.04070338939604352	-0.08011539717149059	-0.03403998907213951
0.01459312352155168	-0.01905058625117158	-0.07083786672064837	-0.02943802160933134
0.02908489643469204	-0.04624160637057991	-0.01296495867738001	-0.03837305434245133
0.03232248903209792	-0.0631598884020011	0.003861462561745726	-0.07375990167161467
0.0006019436555311891	-0.06011622231125643	-0.04698916435933882	-0.0500186441654653
0.003057646140423062	-0.06334072269867862	-0.03430091266081262	-0.02712864675894794
-0.04079809990413318	-0.07009908203251268	0.001874761958679863	0.003126898075748535
-0.03637690563034023	-0.04751614557703679	-0.02063553410056654	0.04539263572329657
-0.04341621292428939	-0.05683081930863408	-0.0248348956984984	0.1065189587272778
-0.01355447115947205	-0.03195755269969978	-0.01754291261503126	0.221380124797657
0.01703778876034984	0.002234855245278119	0.02773507033030535	0.1543479805082025
0.02395399640201193	0.00698780461930313	0.03740061467966423	-0.1090992716973019
0.02650625343325144	0.01940565668194798	0.009811155528459983	-0.2894705443530127
0.03000102210019313	0.02887950258621043	0.02755047646774183	-0.2059292764005162
0.02616452500655526	0.01601599521848203	0.08223374185912861	0.05451981585339082
0.01064518063192385	-0.03258958126960723	-0.00870169342488175	0.1506320048764655
0.001255543789462055	-0.1350027359879954	-0.01349404457416409	0.1271995335029171
-0.06313750276222012	-0.1119322513658984	0.1222308303517862	-0.06833887943825012
-0.07923401035806542	-0.08599759837469249	0.02704725847623101	-0.08054797792534923
-0.01929660897740559	-0.02903714834394924	0.01921791671663812	-0.03076404602224905
0.01941531977144299	0.03780130159558389	0.009980784713590271	-0.02646993754667495
-0.006955721196522831	0.07600500972122716	-0.0478519602285995	-0.04380411007432262
0.0206383476905852	0.09368741303151204	-0.1150064138057119	-0.0224859261042813
0.01609318032648546	0.09340431871121696	-0.1150302736295054	-0.02458494038202058
0.03982234749376379	0.1081292429577751	-0.1353928806964894	0.2800549739886752
0.0509531968938456	0.07550967101605173	-0.01503764551632973	0.2470294726339914
0.00950295479243652	0.04106595461394015	0.1270454460183381	0.05463116824850543
0.0272821361817408	-0.0173537038412213	0.190273772237958	-0.3036558644910947
0.03666419581595603	-0.05575051165370221	0.1985201862656484	-0.3662995260119494
0.03203083636691086	-0.04071740361194669	0.04397022444408855	-0.1822058305513543
0.01594705980929523	-0.01578725589250092	0.04687799288149548	0.04782909210048611
-0.004079146470760914	-0.006006210899290543	0.06637368010361348	0.03459694798709295
0.001231369074868002	-0.03416185130319436	0.02775123260854973	0.05472663069478852
-0.03533695081785777	-0.03819003222181619	0.07697739529123881	0.1024401580802403
-0.04575524749702482	-0.03044474914755829	0.04649874757753288	0.09299941363973592
-0.04221210397043076	-0.03250871990389483	-0.01086613289983635	0.1020317544383926
-0.04383384275021777	-0.03851422210752183	-0.01787163370019515	-0.01584487331220474
-0.0295843168896914	-0.04256592774800991	-0.06400139644684194	-0.0872570250446079
-0.02468172826487873	-0.05895997758577937	-0.06305791804134687	-0.05480045640330465
-0.008838698028366026	-0.03167592921346102	-0.09337096712556629	0.03195867780530227
-0.003270320304794173	-0.01871603903873961	-0.04896756236746834	0.01730681763141807
0.02750442676665475	0.0005570749781563396	-0.04629195392052438	0.0183646915837031
0.04819943088703509	0.02223312896641914	-0.04394161906193864	0.0140588652466708
0.06043970024801076	0.07828558955538273	-0.007266817364987281	0.0003336805165049828
0.07152298119479925	0.07613233763140004	-0.04859621015526242	-0.02151746819472673
0.05538989223532483	0.06312114325823098	-0.004309823557455357	0.02910241054580478
-0.00230637321318306	0.05876041421424041	0.01473570231553458	0.1247486519673528
-0.01518321363583692	0.07802896494820799	0.01512590623496413	0.1189756734032975
-0.03606629553465562	0.07380079203066091	-0.02366764879610847	0.08856811168827933
-0.09589400078900698	0.05367309867362465	-0.04749201029315941	0.06323147069640256
-0.03988458731199661	-0.008902665050850952	-0.07083320026507109	-0.003347673283393577
0.002943004013966235	-0.06827369818707847	-0.07321431672626184	-0.02733751454690814
0.04684675527195403	0.061272886553439	-0.02180586241644744	0.05309974485340331
0.0427963744344534	0.08516044774341303	-0.02984033928718684	0.06807030011998821
0.03331308183104544	0.07579107165374462	-0.02430332192507643	0.02972762389603078
-0.001489044608613985	0.03231376216260866	0.04353581033476527	-0.06341219655161313
-0.02574649108584178	-0.007169014514226549	0.03410879937942665	-0.1156218392606175
-0.01820167739358746	-0.03693398798688689	0.02291678357722922	-0.06589564544018868
-0.01652045450798048	-0.04641089961932986	0.1247513200348336	0.02072330572036227
-0.07091789311353316	-0.07833840622759015	0.07989176932591245	0.0805222595131895
-0.09866111890685055	-0.1024412733825621	-0.004923972790142319	0.1286798458806633
-0.01225681711038971	-0.1002414114393903	-0.03522912656507213	0.08334939559946711
0.04972764353611514	-0.05754538816227897	-0.04345917005143859	-0.01323442200580203
0.04616169097565779	-0.03024563838095971	-0.05757457179221171	-0.1495252435605104
0.03199546981243722	-0.01654582081703204	0.06317313322749278	-0.1596559480749318
0.01708625399559755	0.01552104820091765	0.05394877085337423	-0.05476626639272639
-0.02970290552154978	0.03092149228146791	-0.04639837700028199	-0.06014649009941599
-0.08584185621071276	0.03846809781240551	-0.06885064200392975	-0.05887852855270809
-0.06985636673355899	0.04589758354172383	-0.05871447174680748	-0.04532155478215711
-0.04388331924285397	0.02356675182620394	-0.04233614986996734	0.08732093875462123
-0.01862245069804352	-0.02817865806935585	-0.03845692905226506	0.0719376182537929
0.003888624614673734	-0.03929216471750215	-0.02951468258994414	-0.01106269531309694
0.05191184543728874	-0.06993358965516826	0.03955315280970306	-0.04658436661090486
0.06384024413838707	-0.06441421507333898	0.0441799928989726	-0.02578468825718129
0.0367962636657824	-0.05892475201351186	0.02092894951930713	0.02692670430851352
-0.002066580884540805	-0.03545602982741593	0.1417943319912078	0.007040448999907863
0.002325426389101551	-0.02681160023381189	0.09006521436528962	-0.06206333504338049
0.0314235971433259	-0.0059408892795168	0.04041068596802045	-0.01566209901998244
0.02892940168908118	0.007222195824028817	0.07001150180519412	0.04238309081292829
-0.02955866997260344	0.04085189565457948	0.01699895481161916	0.06876396455939789
0.01784644278580196	0.07675735289909846	0.0005413646446564101	0.03413461676379199
0.02957585761220823	0.06695022467254221	-0.02351051003188876	-0.02217767553740546
0.05685783497032324	0.04988940601224154	-0.03027995638234926	-0.05303311395828873
0.002785187517408125	0.01158547643655722	0.0006999584197006191	-0.04535713243768428
-0.04617080524071701	-0.01735156226249802	-0.01692136663379008	-0.05299716721691821
-0.03746635823609551	0.0005438582289958221	-0.04441259772262265	-0.02420244050629064
-0.02346137454091275	-0.02364723686850161	-0.0520452461660731	-0.02650168453965505
-0.02832646774468652	-0.008272056346898985	-0.05909465733092104	-0.0759880743689479
-0.01395888914275515	-0.0234355218076642	-0.07281140507803331	-0.06577921536587278
-0.02295116273881484	-0.03241286215690063	0.0045756320218603	0.06458338272410076
-0.01199913638087554	-0.04160879989444467	-0.02173504953352714	0.07209555596078129
0.002551291976997739	-0.02216567658153118	-0.03095334997673985	0.04994459467179545
0.0108397438521714	-0.01533799737351866	-0.02272427184050273	-0.004639296369596837
0.01826100717439709	-0.003636748796729216	-0.03138277644094575	-0.1175605658060825
0.04755454230877505	0.0204118729149041	-0.008638755648219983	-0.1559150737034055
0.01437517485255665	0.02150243000635707	0.1194586600595248	-0.06185856905219313
-0.003945142382088293	0.01165691741748347	0.02769566847220858	0.03881333631156332
-0.02002053009201265	0.009579220433305297	-0.01396290755163438	0.03136845590674442
0.04353007183416113	0.02249183175505184	-0.02175520942303547	0.09684299803846198
0.05237740288120932	0.03688241892062996	-0.0007532002538674019	0.1264245416163839
0.03600517621626359	0.04090316753865688	0.06567042697657885	0.08229703233075671
0.02705493183790818	0.0448046973434921	0.03684630383110882	0.02013160438882575
0.02487769761382223	0.02420283941027905	0.01990074522850927	-0.1176602768395817
-0.01270832577603787	-0.02342175695873967	-0.01913812710907366	-0.06842860940482984
-0.04403642662334877	-0.06062271254600799	0.01526862637513025	-0.009357180184715397
0.0008627875828474541	-0.0222230875441622	0.009780127291176369	0.01146466620121373
0.01636530362504574	0.01645494287436381	-0.03614198684896247	-0.01364001734912987
0.00491858920991874	0.02469763226156343	-0.03432737948712183	-0.02741298383862829
-0.01038030321733626	0.02920893757094425	-0.1081109565235407	-0.02311776300806142
-0.02398754245066475	0.03191463381929694	-0.08209903628530699	-0.03699022096572173
-0.01038085088859417	0.01819961543208463	0.03713563335282397	0.05150065384796658
0.009427037336770663	0.07267778811275616	0.01145272440068127	0.09541975301029128
-0.01356652761668151	0.04900478414676665	0.0165864722155361	0.0967018553025808
-0.02790478168172876	0.02048464981998782	0.06964514595758142	0.0665251479690792
-0.03198527552760445	0.009176729568070108	0.04482768810959263	0.01297277568927587
-0.007936171145216307	0.01195874643607961	-0.005260569499227838	0.014073289358535
0.03038444683148512	0.02842153195115113	0.06059849918665411	0.05019616782330318
0.05538250892216169	0.04001196623982381	0.2120772693647595	0.02460454296372674
0.03295647002181982	-0.05942565159386042	0.1103221216696816	-0.03033471698222361
0.02671727169695693	-0.06477100785225012	-0.05311744344671972	-0.0481615401363727
0.02041663152954101	-0.0521327270461502	-0.1826426658972681	-0.03784387249436112
0.01292954273453205	-0.04214759723471603	-0.2045381276359255	-0.004520393361529807
0.001362380558457499	-0.01474363303635923	-0.08706046340646506	-0.02016757531487225
-0.005417653910083837	0.009587515249513826	0.06023175889272599	0.02501320116839133
-0.01811441265535447	0.03325654496237979	0.1475735823155803	0.01969695358919404
-0.05006064602602121	0.06425286526797508	0.06402801859993465	0.1139713842485226
-0.04374570562438532	0.01577179057594623	0.05459764218213736	0.1574591933361991
-0.03256956925423492	-0.05038196184025785	0.04791883100983278	0.1753572033288911
-0.06422001802374463	-0.1302301198675894	0.03221512120817708	0.02540400675079443
-0.09899936482561854	-0.08444338758153373	0.0370327737935039	-0.1308325038205051
-0.01913626229341642	-0.01330964481141858	0.0310714856226111	-0.1323118375365249
0.0226665488039273	0.02005486962797414	0.01320376443706779	-0.09167405752351553
0.0246831273438696	0.03940417666049546	-0.008079803948020145	-0.05482023266931232
0.04322706086252204	0.07219069948248107	-0.06484599177134433	-0.04542548886460759
0.03250354212028908	0.06698495407994402	-0.05691369983145812	-0.04396202820146802
-0.005229379775030033	0.07260569588202066	-0.0156735154022003	-0.03705173381750371
-0.03994734651208263	0.09713013780011924	0.0009333381421103753	0.05467037030632375
-0.01771902967450623	0.05565056233531823	-0.0414229141826262	-0.004707082053466476
0.01966961979870766	0.002792752135930636	-0.05733791140375426	0.02111969624830577
-0.06159678302153604	-0.04909781765125729	-0.05859891978733514	0.09435059554843538
-0.04994729008305439	-0.03974104636888929	-0.03874219381992813	0.05625232155381976
0.004140088783518292	-0.04355775470537276	-0.03900763974288661	0.0055006569207505
0.0123677309218201	-0.0490837934799167	-0.01714657508450341	-0.03149890765252083
0.01540389166580851	-0.04843805739800621	0.01965490831070056	0.04363773052816328
0.02700300463042936	-0.03330977779222626	0.04706196633570774	0.03123749657760418
0.03716710592935596	-0.04209457278560745	-0.05720024709782694	-0.1177711866921276
0.01403195569175767	-0.03798119559632428	-0.08288272215132519	-0.1433721618507391
0.02372339756316712	-0.02366507801372098	0.02699875850617369	-0.04588801327083637
0.0294707095799536	-0.0005898916005497681	0.03413328870046908	0.004639351632598441
0.04010309230366301	0.03695401603351779	0.003616964239028216	0.0235725872050062
0.03482709365675533	0.05837383178812432	0.006253655011143521	-0.01407439391070309
-0.01277457379341424	0.03845521720640709	0.003809573953485878	-0.00692521025017617
-0.01880594721700029	0.0164845029489306	-0.02935084636792163	0.04794750089535329
0.02717022225654765	0.009795784800940248	0.006213111891738289	0.1365200075367972
0.02943727993848147	-0.02219761516404135	-0.008313040888455881	0.0691047059955112
0.02330526158647678	-0.02584380711686386	-0.04791077416115373	0.01942511412962113
0.02242300837736762	-0.03773761696158102	-0.06332646358522642	-0.0814748556776092
-0.006526946643107659	-0.05424413687541918	-0.04727549579542283	-0.02819660608674207
-0.02410410271962952	-0.02287437691217174	0.1132978579426082	0.1006378827684679
-0.04804652607036344	-0.01827084310197857	0.03051154250917774	0.05041813858627348
-0.01051255824634922	-0.0515067810075711	-0.04223300166180198	-0.0004177836921311663
0.01417431341946568	-0.06708303908722456	-0.005144226453838169	-0.0004615718261773293
0.006888529389795017	-0.07653325133166561	0.07990650561775628	0.0388071633284911
0.01230664208816861	-0.06465394300397277	0.06903188529192998	-0.01082358533015673
0.01945600929958655	-0.02920729400255027	0.05377603816725589	-0.01815637956134809
0.00748358588321394	-0.04179683622789512	0.01637103041791241	-0.1026128227924493
-0.007956247155856118	-0.01886031467607809	0.01768045979379177	-0.1496057359705553
-0.040162380213493	-0.002866207293249556	0.01012384629674364	-0.1477412805499076
-0.04945948642151451	0.04629402620674462	0.03189358706734075	-0.07909926815556005
-0.02199294047350901	0.08554588149290718	0.05293157989107663	-0.015478236658578
-0.01275331262613438	0.1200662327766227	0.03791108149108139	0.005170967771239139
6.737077434358777e-05	0.1022944650043602	0.02611578891059365	0.01043395634538055
-0.01576811988448818	0.04667292782290711	-0.02340966967142429	0.01006306809469172
-0.01006059762202808	0.007168309344065735	-0.0643225263920098	0.1424010824837418
0.005063887882168789	-0.02078749456135031	-0.0369182005069069	0.2194286592614174
0.02609466499841251	-0.04931119620430962	-0.05446473848230458	0.1571742196043299
0.04625482470647064	-0.05182541091167529	-0.04783656494914094	0.08674866649015456
0.05753637999573315	-0.03532456624123449	-0.02719335835457609	-0.07740224688977217
0.06925430423865336	0.01516999346354372	0.05421836147426919	-0.2441189722521336
0.02145934879761065	0.03544936419920861	0.03780715993061529	-0.1718782628833251
-0.01674529581772321	0.05964082801691395	-0.04543725718393496	-0.1071617332592218
0.0002522255805621382	0.07378286912189287	-0.05766691916628216	-0.07594607602429598
-0.03755440786352597	0.06053130039545295	-0.05357463992947563	-0.04077897326184666
-0.1017994268699616	0.03229270499881604	-0.008602227461498978	-0.03505506470522843
-0.03430851978966469	0.04274134713853076	0.09261337919990298	-0.03440201339494764
-0.01454503162566276	0.0132604859477141	0.07876819228325575	-0.01787333511605008
0.003357453289444944	-0.002020868823911573	0.06641143428964807	-0.006256786493325103
-0.00593784917677008	-0.006319808650748975	0.03868645721473019	0.0050218801344921
-0.03027846393409347	-0.009847066412675099	0.01571783369685535	0.06041303522194743
-0.01489511513581546	-0.005038888623754382	-0.007629368823484961	0.1272169059897513
-0.009595313050367064	-0.007723958372085097	-0.04766871673012209	0.1644797929490931
0.01326627574568787	-0.02527907275076808	-0.04942300642060864	0.1965771615832562
0.01966921043973642	-0.05604884979815308	-0.06955991528097698	0.04375781414890317
0.03729356077483974	-0.04749689961078146	0.03849264409607068	0.08412237245486545
0.04837543297888328	-0.02083831799390266	-0.03270937947101232	0.02054167419030969
0.04551590164807283	0.004295086511264918	-0.03101423513127825	-0.07277044324350437
0.01900664034279584	0.009465415143043061	-0.02874801872211096	-0.05564642620634713
0.006836665777645376	0.007788384489986581	-0.02505152128101899	-0.07413379683529821
-0.04589505144911182	0.01889965626253831	-0.009667669564280095	-0.0471670697890041
-0.05352445907885843	0.02549674119381255	-0.008568082678793059	-0.02158766747046497
-0.04507234307431255	0.01164260409060297	-0.01474026307223857	0.03676300323758838
-0.02853175124080493	0.005202772760995091	-0.02501103603747437	-0.01795760957154643
-0.006504017356849382	-0.001369799739526642	-0.02336014381503054	-0.04784796404481574
-0.008595186950076439	-0.02679977153454155	0.002230094220523621	-0.03714337617539154
-0.01171195374681369	-0.04731523147564125	0.01551989632751353	0.05011724673383629
0.04538079433396551	-0.1182653501731909	0.08336714481192978	0.004180658599498813
0.01832933350978222	-0.1149033778621477	0.04142312685244889	-0.03095791459622444
0.04039690916890181	-0.0898050699044271	0.009109650487139397	-0.1400951850031555
0.04236347089329617	-0.04797543513422112	0.02727228951519643	-0.1386863155418654
0.03743391373859135	-0.007327538898914817	0.01390932433690518	-0.03226005409629848
0.006130316027309244	0.05560965650959693	0.06312602078601132	0.05224854873150235
0.01074380631158598	0.1133935490964899	0.06223112719153349	0.08230597872617933
0.002939587114317544	0.1455764323651846	0.03060971585382202	0.1115675703948023
-0.01956641666630912	0.1372255227299014	-0.02780167891367832	0.02737771250677303
-0.03617056237515427	0.1253157459449282	-0.03668420594400315	0.001343954185826546
-0.02767840589704064	0.07101563931333456	0.002800786957199388	-0.03056431451535701
0.006737978079448806	0.02146597180460741	-0.002227854742711534	-0.0315242416444864
-0.04600451086578063	-0.01956528329657301	-0.04482893754844391	-0.0009934271834470573
-0.04611822561296125	-0.003482246243160915	-0.08503810017329939	0.03565734985254115
0.01493355602119203	0.01319862059370628	-0.09477268823857107	0.03145169138170938
0.05057075580505333	0.01608326127690013	-0.004067308445795747	0.04906955424625099
0.04058493099153383	0.004836262448591592	-0.0293844842322131	0.04771912350577817
0.0155659445748321	-0.005554238037193624	-0.0273520321679046	0.03634119892836465
0.01060353200426895	-0.02191654736093113	0.01030265311745236	-0.02743888146889976
-0.004932983249835544	-0.01401183004011712	0.08339493446994768	-0.04501228287412296
0.001016328395844852	-0.008862437819460944	0.06361498841252834	0.02368296130878873
0.008007483663382711	-0.03183451731240995	0.01901083966892689	0.05160773304823817
0.007920441262706815	-0.02437119270098229	-0.01456016711015889	0.06008968061140945
0.001958034624850212	-0.03278593742086994	-0.007988467347202238	0.006376275745287732
-0.04508831442578878	-0.03496962938015939	-0.03512698162988358	-0.04792965775246231
-0.02468392527744832	-0.03585439401807889	-0.1848228470150621	-0.138782661070207
-0.005625413216228299	-0.06555509691252832	-0.06149092067578159	0.03009284669885985
-0.01393635133215959	-0.08005693524219518	0.03259085279487883	0.1210534918728204
-0.009884863277725931	-0.06087287673064847	0.1466835821766629	0.1616634324745765
-0.002913282583456373	-0.05705499151291944	0.09154865086309054	0.1066139345060273
0.01564431537351446	-0.03392427399337139	0.01813385987997191	0.00469329318634018
0.00806800379998187	-0.01875655980138219	0.06757499907902516	-0.08866604680429946
0.02878856130656083	0.006509615651944684	0.04856184251582683	-0.09485249583230129
0.03705738990984673	0.01402440064163612	0.009867962612517571	0.09545927905191848
0.006050477844734409	0.02018952548282934	0.02713757774503347	0.02125012004973481
0.01583529621916324	0.007623175974281996	0.01857679965470754	-0.1084319425443369
0.02704988891460854	-0.00132592561351981	-0.03057282916722378	-0.1668595811684277
0.006647972772384562	0.008529905223243765	-0.02170719982133672	-0.1214061752947001
-0.01063915805419175	0.00159799491882584	-0.02560415881462672	-0.05522957536436222
-0.01000817518218761	-0.009120340938805042	-0.05385088321561766	0.007286868212257711
-0.003451295347908357	-0.005916313062481375	-0.02076018699714025	0.03374359944056984
-0.0342497713815793	-0.01250968131320456	0.03366184864418218	0.02529353556795994
-0.009109258728050122	-0.05816138575892441	0.00354199468519219	0.01019390789350077
0.01254179560429093	-0.04423662993395495	0.01931143455207705	0.02429881925445682
-0.006985769811618828	-0.02690586038973898	-0.03160507745557514	0.04178960229706023
-0.00754091714790536	-0.0298534423191938	-0.03187624335172615	-4.197300784756485e-05
-0.001836515070115272	-0.01981991824074758	-0.03001370612438781	0.005890658091099649
-0.007333068874213652	0.009297378176603146	0.01333756695810862	0.06305957442837015
-0.003099370585260991	0.05106214427587985	0.03220335913245968	0.06909104063352906
-0.009632026961975865	0.1006729996043316	0.02157237919315626	0.09045258225431893
-0.03328429780393387	0.1536994553400682	0.02277684761749655	0.04711434041291981
-0.02592720733381153	0.1631746365284696	0.07003678323202175	-0.01357767439501922
-0.01974074683216553	0.1796016526245348	0.07244785686049177	-0.04829530732665935
-0.01152931181637751	0.1171140600713302	0.004370506532646561	-0.09027651298042344
0.03341214920320409	0.03206280314712443	-0.01295777490878748	-0.01502439078205182
0.007288998209634585	0.0134241249549287	-0.002803895233886452	0.0008017350209990088
0.01614179909712963	-0.00407529104800081	-0.003228549489914107	-0.02628943771892093
-0.01649744689236862	-0.02027517616233253	-0.03414831832354047	-0.03891271099745477
-0.02357626373097967	-0.03451439984419243	-0.04135340267286315	-0.06905550054489741
0.04174352866653452	-0.02177015344383944	-0.05385705421721179	-0.084476013031704
0.08382932743618056	0.0003968682982776894	-0.08395074965366958	-0.02802175531205206
0.07553314268211198	-0.01575671208272855	-0.1412574451227458	-0.02260308734146832
0.06999701235640694	-0.01078002411063505	-0.1843877612180288	-0.00269371668165625
0.05541705548397224	-0.005587802081143655	-0.09803415202406479	0.01396208549879723
-0.01748151096239202	-0.02424947598348288	-0.02631932555410979	0.01703155268110756
-0.1058659487339731	-0.005817364897357666	-0.03335524595482687	0.04923471524587142
-0.1810387093657032	-0.006012355508328647	0.01347137043173505	0.0488990486710539
-0.1510943132397402	-0.01971141575046246	0.1789672456364431	0.06935296969360208
-0.01162509332465428	-0.02187701639471444	0.1805892823260207	0.06799395052509184
0.05921504734316043	-0.02748306679713531	0.1169800025364065	0.03826172775263227
0.05019612306808384	-0.04829019816675468	0.01583188214442291	0.07296185206820693
0.01592757535441361	-0.04896853632991201	0.009620030829762991	0.1154229483270252
-0.02004817878374607	-0.05841158368129307	0.002288240284664814	0.07313546716868535
-0.006001876686967915	-0.04725332493071711	-0.05174186869038633	-0.1156351684191369
-0.03020218642849544	-0.0471143215952647	-0.04767109008705486	-0.1289550101269083
0.01536435908323922	-0.04305823543959933	0.01739943442284452	0.1004178375533846
0.03026791351130598	-0.06056280503387675	0.01758229446088004	0.1661460644052415
-0.02444947272931744	-0.03726908023988973	0.01114256042990356	0.1776388808806305
-0.01612645319053006	-0.003381885999879695	0.03873727198269728	-0.01857990670300474
0.0330992455763863	-0.006673474189519569	0.0364311247871478	-0.2015417570580949
0.02556387832899356	-0.002533735804052878	0.01940115136283989	-0.2646265447444097
0.02112901931511249	0.008624189141516208	0.01573902674375909	-0.2317153841223756
0.01679592139062583	0.03520972291594882	-0.05951633868584844	-0.1580519236378063
0.002874806094333552	0.01327338548849699	-0.1446022015552057	-0.04108006313171975
-0.06624011338002704	0.01453378085795089	-0.08895666128470908	0.005920649665387857
-0.08110443704397088	0.0006105791565076943	0.06942981517037651	-0.03480453003995673
-0.01888621635795131	-0.02357942363599338	0.0853018693780196	-0.001167031865507065
0.006314606579572041	-0.02482993325037458	0.01542078175271994	0.002969565485523692
0.0251642533199812	-0.01196210251695059	0.06814066800538017	0.05004192776743517
0.03657685438285405	-0.01916055636041312	0.1549488969195371	0.1202942889871486
0.0100280673714461	-0.02651855770126694	0.1072697486336925	0.1327001073507901
-0.02876978791970472	-0.03926611305718738	0.03611295637153047	0.0977073339261221
-0.02920212718900554	-0.03042446150172697	0.02242452832041167	0.09882813213440912
0.03328115994713977	-0.06370192740666035	-0.005780059877020505	0.04416443534316791
0.0448350194473194	-0.1248625726851617	-0.0001572144923952159	-0.0456883929248274
0.0377787025760981	-0.1007356986622793	-0.01487394857155832	-0.07894260089201034
0.03448831476345495	-0.05012662655815979	-0.05427548878782962	-0.03524321524451812
0.01102264128303663	0.008166292042972093	-0.09028485125987964	-0.05681868770051977
0.01868191252645968	0.08531422089833716	-0.08102921684166431	-0.1473636588143911
0.0182832065674708	0.1316691377056551	-0.04452127932946404	-0.1906467507414503
0.01422535971953368	0.1868640855905793	-0.02543717289112164	-0.08108451912735758
0.04687284657337325	0.2160493544467426	-0.009774514011523952	0.005228712949054224
0.02312799889711888	0.1455556455906869	0.005953151747498875	0.01149643886973585
-0.03419499700192438	0.05906669798244386	0.0141887642395281	-0.03293224448745167
-0.01167689043371127	-0.04652164659260177	-0.04600212878020597	-0.01140937828292929
-0.007767556185556728	-0.06582390176218733	-0.05912267815398271	0.003261758649524774
0.01573532120030151	-0.04174453639245845	0.01351709057559152	0.02992611327823073
0.03793389605077425	0.01746996037362361	0.01634120526761594	0.01143550216057172
0.01777453077525809	0.05963443881147832	-0.009910775309781942	0.02200215195613882
0.002742886756781872	0.06445185238361975	-0.004833913181270021	0.02346670889975488
0.005760931794537009	0.07618434729278115	-0.01662670428769114	0.02827516071069299
0.02626134163852048	0.07914321103299771	-0.03401021940598977	0.01411944966820343
0.01268422594680475	0.07761768291748715	-0.02215280131762024	0.04414339160071439
0.01442357586658024	0.06020732779879399	-0.01569393400927993	0.0408791372363186
-0.006604525641015032	0.03017051658818983	-0.07905390400118312	0.04853275066364499
-0.02261438295695907	-0.03137404893663078	-0.007711944753141811	0.03260270052443684
-0.02349574149923545	-0.04293068393895428	0.0254904533312498	0.05400463130529407
-0.01585797420542953	-0.02327487072593699	0.03254044547775596	-0.0007552565516574373
-0.01478096079602611	-0.04890872578568226	-0.008010217827760647	0.06546037213470736
-0.01958220907277713	-0.05912345608583147	-0.0310232256812025	0.2142546835441766
-0.01393785673640205	-0.04693422915162818	-0.01985202808006439	0.2018972856413895
-0.0422347836926176	-0.05318840440178987	-0.0238747977377518	0.05049417668418944
-0.0004247556756591836	-0.08021489417064516	0.09330481289780285	-0.01379061534115106
0.05010931631800493	-0.07009048022473155	0.01748714462784199	-0.08494842978706409
0.04904607059928638	-0.04923602092233245	-0.01182623695437046	-0.07031246248630893
0.01469372199011778	-0.03493768921730985	-0.002775336150440343	-0.0272892333749458
0.01048644010987194	-0.03522408587272122	0.03354525061372812	-0.04449524484728792
-0.0003035756008033681	-0.05353232306625252	0.1297177492144915	-0.03909751374349435
-0.04235898420097357	-0.04720903994611612	-0.02652174230801848	-0.03305980763138114
-0.06728111240398316	-0.05849548535433302	0.0612543261452106	-0.01820607237095371
-0.04191848764839446	-0.02035915247829299	0.07764848749186075	-0.0100171509469588
-0.01653189487694416	-0.00518413459710881	-0.03523550963618109	0.02022506860425058
-0.01596864799340954	-0.006612499709122539	-0.01819924910729765	0.06235877764889605
0.009646962637311332	-0.009879035034163186	0.0004225128422551599	0.07881045426303841
-0.007386901737190159	0.0240385194184935	0.00966101132454604	0.0836227112378965
-0.009507321119065966	0.05048209122728372	0.03037167145394863	0.2318563946998717
0.02408426413323245	0.04375811489958307	0.06434974221253315	0.2686366003889127
0.008145842906885307	0.04526436193231692	0.07400406522466842	0.1550578133491615
0.02319350288429957	0.05033543780323823	0.07405920097716456	-0.1448569493366151
0.0209721900234401	0.03013332817664107	0.02009932816460926	-0.44120449372601
-0.01219112674007768	0.01519336243975971	-0.02505622137026154	-0.2825386383141925
-0.04628081010878004	0.01202029253826723	-0.04243102856266377	-0.1451047383013755
-0.02433987372921232	0.01036692353570909	-0.02393780385296687	-0.02424514055264261
-0.01082025151028426	0.001061685009929299	-0.05090338702273757	-0.01403105365553175
-0.03295194727509129	0.007681886136701625	-0.07665250874213229	-0.05958049275309654
-0.03046220363489004	0.02251826149513622	-0.1098484471064251	-0.04471600756409472
0.02199446403922503	0.01575599382686108	-0.0017019615627543	-0.004664754023670717
0.08943118102369901	0.01548672300988747	-0.01245435018400959	0.02184750277672415
0.03515843384739968	-0.003855662695884778	-0.03770299053568388	0.01282832288327421
-0.01425995022422395	-0.02436948448466649	-0.06937920834057769	0.02047276564203831
0.0264439391238424	-0.02308873704614296	0.01054475155389511	0.005366692056162485
0.02024590001205335	-0.01995615432548925	0.01678261559646241	0.01366181139150953
-0.07297459586586834	-0.04399095207127308	-0.01613725481382348	0.03293440129138307
-0.02792441308536989	-0.0592543968273145	-0.01936043041838503	0.02848641459948103
0.04182525341515891	-0.09908073530539981	0.01570064483998682	0.05196686542905501
0.002334780005227152	-0.08136521504308221	0.04789625457740799	0.1058604134674562
-0.02532709088320051	-0.05848907671275212	0.04244187091190808	0.1208421101267699
0.007590100323651069	-0.03217864990860954	0.05020917135072786	0.07137332771513644
0.03820878709465419	0.02572174154055144	0.0759902726463007	-0.02478482187396393
0.06624741190591951	0.07602401922943808	0.02065194318702578	-0.1106219489194722
0.0141742583323944	0.09792652137767842	-0.05809294418047386	-0.06223732149187782
-0.01939206957161253	0.108263489933814	-0.1251657999361499	-0.03622160136075257
-0.03613912996288923	0.107234622469084	-0.1237629413465224	-0.03961015224501181
-0.07849911622240975	0.08912359618222009	-0.1155012657633999	0.02827746471424415
-0.03772911245361551	0.06782346450698165	0.01443242240585246	0.04463058682567731
-0.03649089880031343	0.01240538158239654	0.1858275925267033	-0.02537585935605819
-0.07252965274302066	-0.01473157487105257	0.1140452552807351	-0.06620494957741538
-0.0285754348298555	-0.002252605014086727	0.006149645125716132	-0.08286101260104904
-0.01413616018625065	-0.01315033644679635	-0.02817189919447559	-0.05777141383313123
0.009249845226873893	-0.003900687429545643	-0.07014607239329188	-0.003694215015233552
0.02859299674097309	-0.007387156130544805	-0.07379164375694634	0.08580141363615572
-0.002240953363290571	-0.01421323226018635	-0.02296316929522487	0.1000833337875501
-0.006957929466507516	0.001484207455758498	0.1008408751311459	0.1643013946603825
0.01840545948344521	0.008029063949932188	0.05922387483172134	0.09112316526262072
0.02307936596531885	0.008437772713084891	0.09873512128674243	-0.04124544372432511
0.02776071562071892	0.01396564882422989	0.08557687207222241	-0.125180182599837
-0.001314828274496357	0.0188091748753025	0.01521563415219953	-0.1308573366801151
-0.03464278404426475	-0.01982027218993332	0.0126687937182174	-0.04711061072382856
-0.01796459166358808	-0.02570830307635727	0.03224883217427881	-0.007214657413983054
0.003723954418535545	-0.04011011027486269	-0.03496882281920753	-0.091753359515232
-0.007447192209330825	-0.07613392558288098	-0.003308028360321681	-0.01175226149890102
0.03441287610225253	-0.1107504587585947	-0.04302810792051259	0.0672142015912241
0.01156059720002629	-0.1194907785152991	-0.08603800881978127	0.05768562963931981
0.02907447757655828	-0.06908099226343019	-0.08417173935690081	0.01403475184436602
0.05951518893881221	-0.02301522049393974	-0.0702367916205134	-0.1506562869248933
0.06548790420248068	0.02355263531405254	-0.04388315043228756	-0.2224763975416617
0.06996593509813166	0.08923714560191261	0.03255931875383487	-0.08917831703816839
0.04227947838930956	0.1076142025932679	0.01547217459507375	-0.01622064576774631
0.004748217852720182	0.1037755795562341	0.01602116274140833	-0.005238973146230176
0.01256475448377725	0.05964179036822267	0.06358671369396721	0.1447948702437921
0.01277117754638126	0.02676206733480309	0.04731547991580414	0.1610636358335681
-0.0167909828186487	0.0251421454105561	-0.03339290674204102	0.001880441107368357
-0.03321155993669864	0.001168343931722667	-0.05950212540836392	-0.1119591266220325
-0.01689261210163922	-0.04407081004924251	-0.03910005298214767	-0.05095619910949082
-0.02541189289878451	-0.08540211496554143	0.02586055714238469	0.01097409205943674
-0.04543027552663916	-0.1043034418777253	0.03139716626948921	0.03093783412231054
-0.0350327297583111	-0.08963817574980222	-0.02347121979157225	0.05152994194748396
-0.01697018481262716	-0.05353949493718279	0.01854509178217201	0.07274683997110887
0.02326216309759341	-0.01578305821689381	0.01318317893714812	0.0451848422416084
0.01138214573154587	-0.01821540542540182	-0.006908470808919073	0.07892221059637372
0.02048700248917085	-0.02128700172085409	-0.04328690982985815	0.1392993334617217
0.0162381164985742	-0.02602749553943233	-0.05085101105130181	0.1410655546280867
-0.004515618717287479	-0.01268513695536883	-0.01048162831550408	0.01790628760980812
-0.009609986276829182	-0.008510154506626313	-0.003556275597374829	-0.08045603964618091
0.0296637807937382	0.005914499202708918	0.02934910425130926	-0.06146581769796778
0.04718410504923041	0.03022389111819435	0.02911078724440197	-0.0396268989207488
0.02919032931348611	0.03951423225427338	0.03041530007225807	-0.03736622038354485
-0.003592531595070571	0.06270520795628212	0.01640342415535874	-0.01383208046742705
-0.01350500309760473	0.06484954194288775	-0.05606994688021704	-0.04635691374277232
-0.02178151410916369	0.06240521364611601	-0.06902691536865729	0.001633600113039976
0.008656996416227752	0.05293105434409284	-0.02399759254513793	0.03996167489570013
-0.001341709456940755	0.03424063090995603	-0.03206588056871506	-0.007263338148744324
0.01572856946461755	0.03725312034356591	-0.04073820256157726	-0.0003620369117168097
0.0499291524261307	0.07969192648941058	0.06012993544473179	0.009557856729726711
0.004007154150673492	0.04296703714301549	0.08451375372808746	-0.007879060908920559
0.02144368664320093	0.03468878730142398	0.02802709030055183	0.001786897555065544
0.03778326895227278	0.01918675686501133	0.01258649288753791	0.05098026707556381
0.01455258390911476	0.005352023137079561	0.1743082090296205	0.1017598613568109
-0.03708778435389888	-0.004346861396584092	0.1589205543825113	0.1677903227362371
-0.02549887939102803	-0.01240847914527711	0.04093594756699346	0.09939111616033186
-0.02148162425468799	-0.005008541583878276	-0.0003072530278300976	-0.03424101792969051
-0.01189082212624998	-0.002562314095943226	-0.02787675267229866	-0.1218803515614044
-0.04679591067385844	-0.009704760218960525	-0.07479761472486783	-0.1221099378673288
-0.07454829160702292	-0.011957639831972	-0.0690065441612405	-0.04765002014835318
-0.0627998424217928	-0.03910768634768947	-0.02126406112810614	-0.06812554804882
-0.08336947858356854	-0.07104133822077921	0.006024216767951722	0.0001280276235667979
-0.05525366364401655	-0.1039589018709879	0.008471235505284997	0.03827507461107382
-0.06107601805490082	-0.09048179255440708	-0.03125917760270347	0.02014858743337205
-0.006342107740168438	-0.1154472430701197	-0.03921789157945631	-0.06342899615402259
0.01193126396796278	-0.07139993964186472	-0.08097173191960111	-0.1160656999046056
0.01922570593336987	-0.04414965172622785	0.001387781573413087	0.03752998927416609
0.06705800814176691	-0.004013307166058024	0.04867311034695974	0.1908543132654517
0.0260983387351399	0.01560902597052359	0.01739206553187451	0.190391552256528
0.00870697726875316	0.08215570021470968	-0.1130082111049256	0.02217718181448854
0.03293170772055742	0.1224462719440325	-0.1102573886082892	-0.2036848007646298
0.03703811454993312	0.0827294166431745	-0.08124206292713253	-0.2950781930315801
-0.01116789093593361	0.04066308897965882	-0.01904154106330584	-0.06735035975335377
-0.01908766491823891	0.01861840473650466	0.1055064685860286	0.08559803825979613
0.01811490007409305	0.02158483327073578	0.2406412932460528	0.1397941556901874
0.05472049688534351	0.02620117278162311	0.1082582644606793	0.03197343120849195
0.04552218723936684	0.02977516537941544	0.03074338052887429	-0.05853280606144693
0.07391471303802533	0.03804877786285846	0.0273586978234657	-0.04496374236475555
0.06476291081837239	0.01450655900800402	-0.03111689438926981	0.0181087614135491
-0.01853644037608922	0.0165659776768321	-0.03385798746197866	-0.008670463568727036
-0.1032245373808875	0.005434979975842459	-0.01475772479238255	-0.03264920738055865
-0.08079309568502682	-0.001712855073268917	-0.06753271769088556	0.0248316360620398
0.001175779275311758	0.005033828761534841	-0.07943910733769084	0.1247111699528353
-0.01379288286296909	-0.01812786200105918	-0.0783358789326848	0.1413123973019709
-0.1346708555430722	-0.03596679712870001	-0.06538133588066168	0.02243067237235987
-0.1365783666715192	-0.04389116803438094	-0.06747144623142071	-0.1206633333507864
-0.012256798857519	-0.04445001119905746	-0.01553735208529687	-0.09025419711999898
0.0007925737813692464	-0.0495714776423514	0.0445271363442557	-0.06960025848796957
-0.006349619407087285	-0.03174899030878254	0.01352000247263377	0.0418590879737089
-0.02687145069430162	-0.007242656424579517	0.005504320730083757	-0.04380877345488392
-0.03098584112661386	-0.01791304979993	0.01895400275882832	-0.100370900740354
0.08774482394388852	-0.02064766377039683	0.04505886951183709	0.005438974083505865
0.1425716855952511	-0.05013150197991487	0.02963775328961718	0.04667226956899535
0.06010623347359387	-0.06232872464960655	-0.04123853163106765	-0.03268768565655211
0.0296219332089204	-0.06108766683104444	-0.01418006835671376	-0.03487359632939722
0.01663048010813441	-0.05545202186747169	0.0477365498332761	0.03521856100940742
0.02956977392650691	-0.01052182965452378	0.146880216937469	0.04662059325221458
0.03410363652962173	0.01773383595590206	0.004819723306812529	0.02780610408069287
-0.001005412242583557	0.04662439537566005	0.004760889488685878	0.05206340278988133
0.004151354250287852	0.1140426078937604	-0.01726137714439056	0.01647054053945633
0.004117095539092929	0.1296466767991072	-0.06744674310788067	0.0056776290338019
0.002430088127571927	0.07092589016338548	0.04145858301207948	0.008341570277128845
0.01409363234851376	0.04163839488452498	0.09996864831100355	0.009400378629184114
0.01240386234158228	0.03715004091754446	0.1038342890552222	-0.02663410549669703
0.004414974054906198	0.02296161531182957	0.02992565027600628	-0.02498676988583171
0.004278623179153431	-0.003244655057351702	-0.02328835262868543	-0.009194673616506787
0.02733446094295092	-0.02230478781279798	-0.06682074290417274	-0.02459157815346336
0.01716130802060691	-0.01497105211963939	-0.1097618687105294	-0.02084748342202883
0.0007257384265781387	-0.01571521604805881	-0.1573080361840603	-0.009387714388372275
-0.006846910406208215	-0.00156577990680902	-0.104960076034909	0.09815113259486502
-0.02099949880305141	0.006979859932614594	-0.06734357048526737	0.1022960395476443
-0.03804352795826331	0.0102062921206686	-0.1046226354577971	0.03966986849944625
-0.01950199444158243	0.02637681040905803	0.0008014299682575288	-0.05569535516305329
0.0122411450666893	-0.002335672666961911	0.0817297368875604	-0.03845716406745143
-0.004137370153230846	-0.005705637879022563	0.1125187158807776	0.0232882184795252
0.002749557329728584	-0.01648062463393728	0.1111840807260776	0.06594589713900467
0.0375640419732978	-0.0191654579379267	0.1652010225330026	0.04805843635853345
0.04143727889446481	-0.02117582068543857	0.1163401172049776	0.003258080535122835
0.02394756164897516	-0.009651776660200862	0.006617527523109278	-0.07627562107043431
-0.0196649479354033	-0.01617953585647905	-0.08746514633837742	-0.1536814427824352
-0.007332190494382958	-0.02057983967973165	-0.003614769260002703	-0.06723872336793428
-0.006379285525783785	-0.03806562714174846	-0.02064041492969488	-0.05232573783695009
-0.01125381879836355	-0.009739034818560014	-0.02955259512930727	0.002108369541604895
-0.03396377500634024	-0.002240687357132789	-0.03557893297671141	0.06399950595425033
-0.02744550433910523	-0.034384425917682	-0.05264596052917136	0.05362722960598883
0.02082281285885423	-0.05281899275162166	-0.05962865894758013	0.05095368666753607
0.03612775938100213	-0.0703694414546893	-0.04751167640007436	0.01693168357624762
0.006080851164084298	-0.04345597965574689	0.04313363392631715	-0.02358981553757831
-0.01035499854651614	-0.03469324570189388	0.06278385182696394	-0.02848948080845451
0.02845844519825261	-0.01887695623146337	0.03364151314179766	0.001512497878789232
0.03170732365141329	0.01385526377326601	-0.01446097778350177	0.001155619728197598
0.05131585325818152	0.02597643302336879	-0.04129414814429899	-0.0158133096687274
0.04621629580230786	0.0459668183946019	-0.04918419212371848	-0.01180995312510787
0.003184300324810264	0.0005632314516259443	-0.06484665049596432	0.01766988791126751
-0.04331496063932132	0.01012720459375945	-0.04622046039213811	0.03812458300103698
-0.04775806128424146	0.03976565239814208	-0.07008563214586495	0.0104904840901798
-0.06335158743503648	0.0381250664925361	0.01099561873592178	0.001628021625825136
-0.07426791629629841	0.04466921313074089	0.04750410273788588	0.01289838148402512
-0.09170945378494622	0.0419632455279256	0.05330115112332442	-0.02739113654826273
-0.08156322045281504	0.04706008138001289	0.09844871509795836	-0.03074543253157792
-0.04583050159089815	0.06001380934962765	0.06450543452042645	-0.05119396409233765
6.545199765735683e-05	0.0657653908615802	-0.002066550940619309	-0.01095603438425975
0.006967086771885167	0.01583400290616668	0.02165998530615176	0.1015196750454906
-0.007377558560134599	-0.01852337916747889	0.0616673671623967	0.2627868458720583
-0.01372477345563983	-0.04889215852716343	0.04009579443445201	0.220361372972744
-0.02465069854281641	-0.04649875638853958	-0.02594751450991544	0.05561621861045571
-0.02222313452785669	-0.04380236211395359	-0.04445985135599869	-0.1483469610042022
-0.01867095967266569	-0.05457439012006284	-0.02042652494329024	-0.1084834061251868
-0.01327249453604511	-0.03457600544246033	-0.06534664412732871	-0.05044311073963015
0.03340052747976462	-0.02931805220878365	-0.03958836021133253	-0.09492351339631999
0.07761437871295168	-0.01108797590709146	-0.04774386981989395	-0.09358274381951627
0.06485158016480573	0.02148057874988375	-0.04650227875202546	-0.05872135023375943
0.05941062487374713	0.02455774764481614	0.02222675419737493	-0.001656292272453884
0.04659052622732029	-0.01014605297684307	0.06244800983027445	0.009696884780744435
0.02370330310055435	-0.03792565093909933	0.006302345975481277	-0.05424056427160271
0.04724283238062919	-0.02181418602572426	0.05468056093960258	-0.0537386854859636
0.06349589220969527	-0.01139101078948602	0.06318857496297722	0.005939252231002431
0.05757977119768241	-0.04232978360871767	0.02104477198580501	-0.05583645576885925
-0.02714047795699375	-0.07434301219051899	0.004465696880778241	-0.05923045043532721
-0.0527223477034104	-0.08711570305868566	-0.001390854674526063	0.001330398851349023
-0.02429589796368547	-0.0750894455136574	-0.03451176142936112	-0.01237541935531158
-0.01496789104109841	-0.006521432462443674	-0.0474770183743577	-0.01707507819228657
-0.01113778767451126	0.1468403220959703	-0.04612669364284915	0.0294090539258999
-0.04762268726516158	0.1377357961931428	-0.02567347157826768	0.08752082833823352
-0.08575083527185785	0.1360920912171135	-0.05088851388061666	0.1045431556613671
-0.06649484465745922	0.1607560210079674	-0.1015933043058158	0.02315338767248414
-0.01511563164892497	0.1486068133865158	-0.01569493838198589	-0.02053814664200943
0.005800340270131492	0.1050558922080689	0.01385364262919871	-0.04339049394796289
-0.02613191510737263	0.05881013272230418	0.02864180628705204	-0.004231675144793725
0.0332112187524688	0.001995471262644363	0.130874436281774	0.04285890642466071
0.06366496495004599	-0.01924266984279585	0.09442560795739048	0.02484456438617721
0.033267492573809	-0.01162226044816937	0.05668655580438201	-0.002888729844395418
-0.003570101033998191	-0.02236448839085134	0.0579810365185655	-0.04751615890384099
-0.007340740239493202	-0.02685823702222917	0.05820450747642789	-0.05866948556718809
0.008284005083542285	-0.03738066151568297	0.04692467615875315	-0.008173517843211279
0.04996291640297739	-0.04870288965473397	0.01404662249914175	-0.006565878605410531
0.0212262182399913	-0.04590577425889209	-0.02958829618534108	0.005426132268664848
-0.01117615597515493	-0.0602900691037611	-0.01105032699897916	0.003973694974768088
0.01831111029121664	-0.08166412218228988	-0.03358845883806617	0.0175349281069983
0.03936841789269734	-0.03098359032145039	-0.05658817214457256	0.001476467309689165
0.04296329881805751	-0.008028529948479975	-0.05203033950198511	0.01744421282563715
-0.0124561975602035	0.01835698982153145	-0.04938094820136502	0.03421478295533934
-0.02662171560553689	0.02729163200683836	-0.03905099618977826	0.03625386408831981
0.000330300276655873	0.02317494577957076	-0.003326148731985412	0.04200659352796068
0.01257483773758868	-0.001432662062413887	-0.01617644373696366	0.01558265130598917
0.007425138101856794	-0.02913375125335065	-0.0609048419103056	0.03041283804539223
-0.04184978374747737	-0.04334574269029247	-0.02182397420521407	0.04756508844687631
-0.05756739310579708	-0.04950422747807439	-0.00189505867434908	0.01492517946307247
-0.02513082896643018	-0.03415189781411895	0.02940429588531309	-0.008058152595670217
-0.01198553324215871	-0.05142118737209944	0.06385445550106471	-0.08806748446218091
-0.0102653464964372	-0.05625994504936178	0.07661922033036327	-0.0918994865893943
-0.03368604556419458	-0.0249683380158163	0.002531748552024971	-0.003070420221794783
-0.03022096329652351	-0.008048253230007203	0.01515279842743479	0.05855440205094038
0.0165760214293424	-0.01311521772468466	-0.0141533831079233	0.05995536825799525
0.06374851624572533	-0.0168373928198492	-0.08736513148118523	0.07547131407283529
0.08791242485491238	-0.02075383463684401	-0.06775474064732762	0.1286328974618121
0.07008871177115007	-0.05974290826212264	0.06575092391807319	0.2479839615133236
0.02095622606284598	-0.07409608318731133	0.0598603580327807	-0.01003770598521308
-0.01489261437586148	-0.08564560382961586	0.001849092852446847	-0.2097966974047939
-0.01824153549546485	-0.05183430809460728	-0.005024385733903131	-0.1942763627857449
-0.02254100810556978	-0.02687986302992126	-0.0617118083945852	-0.09200710224103388
-0.02400322038406075	-0.00788070033489438	-0.0947747951252995	-0.08680503629527966
-0.02238187180619593	0.02575790184692859	-0.10451861273585	-0.0937531988231997
-0.04735105979416996	0.09081203019472513	-0.08060009703216538	-0.1323330672405266
-0.03935437238493265	0.1184079074268689	-0.001898434276310575	-0.08171657269364557
-0.004651747378946612	0.106764840125547	0.0266206815879973	-0.001479206152880926
0.05569625486325093	0.08933935850728834	0.09943195928047263	0.07127658416642278
0.03375531444201312	0.05473702013958633	0.05017299073770781	0.07137632818570258
0.03295420489827468	0.05172043302326192	0.1770201312373266	0.1041149078463255
0.04036809814781187	0.04190382135726357	0.1286689144494855	0.09366187659457964
-0.009372177669964551	-0.01039001808820012	0.007783680106746144	0.03285577387100871
-0.04667674332268149	-0.04906230987139064	0.01156093793784896	-0.103234629802161
-0.0635623546808482	-0.02101834025713955	-0.02832543525411153	-0.1483232792922144
-0.05525346990631703	0.007932535534882613	-0.04659372300975036	-0.0829780793499659
-0.06452319954710328	0.008688780778401033	-0.0725159919555179	-0.007031483996942238
-0.06342575934585355	0.01178002867715853	-0.06170156948781109	0.01004593202248822
0.01477919999568319	-0.02452332485088406	-0.07338800155016263	0.03167405989838571
0.03905465224081641	-0.01355117434222585	-0.07802509968971298	0.07076937076742242
0.03392039045152715	0.04519306381197529	-0.031633808228733	0.04784702364131025
0.06868697962938744	0.05713539753428721	0.02295817479677404	0.05562941651657258
0.06235295577703138	0.0404766049146798	0.03197525968329006	0.02383580276989783
0.03635939558626786	0.0364587155992095	0.07249514269610241	0.08919030812402617
-0.005607196101842891	0.03506570997648251	0.05177633203686038	0.07600106861498777
-0.03338114204197203	0.03805046415164885	0.02948109912394384	0.08665200547902115
-0.01352494939841791	0.05107848734364252	-0.01553712217919908	0.08671351309108941
-0.002269116663476929	0.04235221515782765	0.06329845294029084	0.1112727202432519
-0.007901564594920037	-0.02022168074777324	0.02837261048803608	0.0004674486665101642
0.006380267679186737	-0.05469964740139566	0.0167186370746367	-0.09941769026856734
0.02443313889098257	-0.06337368845168294	0.03487072130725966	-0.1571288876483251
-0.01540450088495042	-0.048414749645768	0.02361733572207582	-0.05449131904008232
-0.04477212823358973	-0.04351004681568413	-0.06624368686802647	-0.05295134376849198
0.02058712170118375	-0.02051577820762186	-0.06117006472462892	-0.08083652598472299
0.004994366803229547	-0.03419265864044817	-0.0212038102582528	-0.01546655981428929
-0.01584327729836812	-0.01729462222530638	0.069053107441642	0.01349282922643676
-0.01441607198760034	-0.02857118325041813	-0.02407132255063669	0.05831798751424945
-0.0256963801062241	-0.0542383035012815	-0.05041010217617084	0.1214391288170392
-0.06713802025573325	-0.04490334678746468	-0.05415430052391081	0.08188454852276059
-0.1007290882164284	-0.03631600961821502	-0.03480709357744202	-0.0016663646646238
-0.007229775784321277	0.03125047953134066	-0.04535682168669481	-0.1182912766983696
0.07225224859754151	0.05098602222906726	0.06690783360532421	-0.01987562318248693
0.09117316262805826	0.03879166409419228	0.1218447856209453	0.02447601164894851
0.06536952900869696	0.04220997633182123	0.08067423656296374	-0.01549846978763552
0.02528568114948395	0.03971429711539421	0.02725518515804261	0.01422591067339154
-0.01339016020297719	0.01218708340123667	-0.004382799946571775	0.04078322172630402
-0.008552569791604949	0.01076561649038182	-0.02034596755632025	0.008957899684447514
0.008362392433516072	-0.03447458480328885	-0.05390810458020352	-0.03690406700295682
0.05877271736915411	-0.04317543093104795	-0.07151477687247342	-0.02826805607095835
0.03229367830705684	-0.05465846915707401	-0.05709031409600965	0.005252509262509054
-0.03017658673323745	-0.05215297741686967	-0.07600972466280259	0.01155415913253572
-0.006881618303597356	-0.05319813659699672	0.04308727419052718	0.07000066791867432
-0.01191018092974869	-0.08874170718582619	0.04194103340084105	0.03476670480494565
0.0127809596672306	-0.05902896857467086	0.01186390845636449	0.04188792732890285
0.03047439654812578	0.01506436345497413	-0.0007252455818621441	-0.0128384044713784
0.0383667164854949	0.06017200938051638	-0.006904400377618454	-0.05019311173146705
0.007142313929218733	0.07403355856553237	-0.02807761567459447	-0.04574784541466605
-0.02139591160722467	0.04170434789765542	0.0007761058303963793	0.01292640547324729
0.004882649709128551	0.05714445553311519	-0.005655380518586587	0.0428800939138714
0.01791056474014221	0.06715397767207978	-0.0234079247570612	0.02316570218589046
0.01632775368907085	0.07120255023424238	-0.03550107359462807	0.004371603986524015
-0.01381487196207861	0.03831542972551455	-0.0637772766138444	-0.0260117850848693
-0.04162106371239323	0.02117130569114135	-0.04345590344622658	-0.04934772545520209
0.0161198980143773	0.03382103140324699	-0.03172123809625999	0.003923903635355523
0.08244570789590133	0.03940871554166208	-0.06982625112065229	0.07634997058717248
0.07262416849112242	0.004893882273229263	-0.05929897327820013	0.134665413826497
0.01899270427097989	-0.02559167737613751	0.07972097251642972	0.07307386408127099
0.00500146851672487	-0.03713429960756268	0.1421206623856892	-0.001277959210979362
-0.02547954583371955	-0.07423119357504691	0.2198265696113527	-0.1291356632083648
-0.07243459497678685	-0.06333720953207005	0.1165416219267108	-0.1328568278100483
-0.0955901405013123	-0.04532677417842729	0.01397626161024581	0.03584770665916378
-0.1498733116988707	-0.02181782195298904	0.02483293972363291	0.04910066218741464
-0.1372343036680277	0.0168091234571478	0.02046624803233138	-0.02692071534458533
-0.02089546630550367	0.05473099432370956	0.01029597995203537	-0.1534391651660695
0.04750238355925415	0.04845915491197957	-0.06284166652351601	-0.2259717656797497
0.005554729496279011	0.0468225758827296	-0.03609394917942373	-0.08737131368653825
-0.02073452989723825	0.04111041597605338	0.04425167006352686	-0.03681225258380731
-0.001621887492461234	0.0377213792164689	0.01319447010794904	-0.00627711786509304
-0.01012987321503028	0.03197029528137574	-0.003503726568957888	0.02109695736467543
-0.004339511802022756	-0.004736479276360834	-0.03703366103023734	0.07457625132681106
0.006835700539416616	-0.03646751300151412	-0.07953056797632413	0.117709918669788
0.0124987198939635	-0.05818065958302285	-0.08427875895644527	0.04127434401378162
0.03626487585830615	-0.0937480970240748	-0.1044840910945985	-0.1209868481188425
0.02123587590940709	-0.1104063686791884	-0.06204722436768768	-0.06428205656013139
0.03895615683263984	-0.0977265950353795	0.01462542002454603	0.0009799261056375355
0.05188231091197415	-0.07390175841427409	0.05569615674783151	0.05633306429943168
-0.006543294665783485	-0.02921457579139592	0.02463109838267378	-0.06622426383300099
-0.0270617764857558	-0.01795755391804041	0.03399054270144951	-0.09915223174455955
-0.02952880004340926	-0.02570875938986264	-0.04215584786804391	-0.08768514054476424
-0.03622045207400611	-0.02372591201779422	-0.07957999314894869	0.012467283679359
-0.0342232803752154	-0.01593089075004359	-0.08973384316001103	0.01745727155851252
-0.01004666569571688	0.02785847226204676	-0.07541479072005779	0.0398535979697197
0.01606959070297244	0.06397489157331553	0.06460838000336265	0.05633971945045538
0.05980382672571064	0.06872679506513864	0.1053736134223348	0.04909504654368441
0.05270742241606512	0.07971518284256905	0.06842694809839325	0.02059225438466588
0.05066894733581276	0.07493640511013973	0.1041593779292505	0.04146538194501488
0.03633389743287491	0.0635915111866871	0.05109933475005007	0.01645531207684877
0.006329104567622643	0.04576084431177163	0.01323967831993786	0.01186393134894275
0.004490277193753856	0.04920500967557087	0.02447638867486785	0.0513328920899662
0.002744909567963275	0.01918673541969939	0.03549500311298309	0.05564761060056663
-0.01830661244661219	-0.01079627128160511	0.02135710697403047	0.06233676341462779
-0.0382631932870351	-0.04365501957499103	0.03357309509985033	0.04792759781432143
-0.03461314116934132	-0.0451636632128566	-0.001381520410903754	0.02713482377649034
-0.01851983219799479	-0.03678899647017965	-0.0163514186076858	0.01905264002162472
0.02653363274601124	-0.02652252000512562	-0.06732115196781586	0.009981545032569501
0.04153293928406879	-0.01617100005805414	-0.06327120453585421	-0.0133318947353574
0.0679918863036748	-0.03085239213314371	-0.05504416739282715	0.0009278016227691631
0.03453430443493769	-0.01379336014750905	-0.05052194713603769	0.001690445321313776
0.02535614602306501	-0.00820505359040005	-0.03537392444427584	0.0199560119987973
-0.01815231235554693	-0.005465673101209567	-0.004587746473253578	0.03243968269954863
-0.07567109769619834	0.004358566898404718	0.05422463303525334	0.04358079675846212
-0.04045467435111428	0.01962384540911037	0.09317769505779534	0.05419162670404511
-0.01413901001538612	0.01494992274490376	-0.0007789259568404138	0.02831526154464835
-0.02725012521515355	0.0001184448086892097	0.008591925855255362	0.0408445389319172
-0.05433476217282095	0.02337802317766868	0.02019694362398377	0.0321833001357822
-0.1126776688998368	0.02119242623765345	0.02228803811209542	0.04781150261215157
-0.09020399210806965	0.02886463895551825	0.01699740627059028	-0.001367744415461772
-0.01305134626253059	0.01637251906239728	0.009278004446324935	-0.05001636772475568
0.1118608513794823	0.005840325412062515	-0.05522897841224225	-0.1415279892011291
0.06762580821237142	-0.001310165525209686	-0.03835217748051206	-0.1001407023288671
0.04086497303277457	0.01537052504961078	-0.09088090628316187	-0.04192515264802039
0.05697692292761929	0.01597910030089077	-0.1221858545589051	-0.05371717268170787
0.0301358565396655	-0.002817271374800189	-0.1010458944538641	-0.04669789224299666
0.01891617292401119	-0.01628251574825422	-0.04458221066657447	-0.03106526759755889
0.02769077205240254	-0.008468954054519282	0.01666400703678941	0.05944907793872963
0.02369806510992938	-0.008841565643610503	0.07876268969139934	0.1532205012211703
-0.02302836068324109	0.002033986683793434	0.05618043209111661	0.0281978627325491
0.01605372902915402	-0.002051990488722255	0.0652998214247604	-0.00931898651649583
-0.007612664569387691	-0.05923832967006792	0.08442723686202744	0.01332583902863734
-0.04373235725201706	-0.04489296302005513	0.0195168625333752	0.003483999932562963
-0.02897500818232714	-0.009789723059659191	0.005350440746883855	-0.02308637618025755
0.04416863018878755	0.04866250392797851	0.01734949063705629	-0.02560911200600183
0.07011570512589625	0.04288670196141621	0.04961535259750793	-0.01752079248444269
0.03444480782421305	0.008206390372400164	0.02793891745845561	-0.008255196538977931
-0.04371223684295323	-0.005920396055428354	0.0162033360978723	0.1017181276083895
-0.04330860670739779	-0.003893666602712008	0.01849844922127465	0.1327125376347391
-0.03185360993225741	0.01354402629255104	-0.03647979515640737	0.0502102581688105
-0.07664465226074502	0.01247764143544081	-0.08296106992899069	-0.07868489341132448
-0.04613581004021803	0.009832573005645478	-0.08154386810639311	-0.05610840875680933
0.02236482769399186	0.009585837042421297	0.02848294894833783	-0.007899264848788381
0.03905037453213465	0.04492889745293287	0.0562085346470063	-0.06396972411724265
0.01234364760556552	0.02581256422124254	0.04085660286530519	-0.08990124659894135
-0.02824759148017235	-0.003839713929729822	0.007286760202150657	-0.10096414962574
-0.001201801431162447	-0.009315004289434893	-0.05111494963439955	-0.07945514887044405
0.04018830334660082	-0.03932392697784629	-0.07830043660046428	-0.08972625791830656
0.01753661395665896	-0.05105596716632999	-0.02819472920035111	-0.03840365658075411
0.06214464139572879	-0.01058476038521508	-0.02640196453505724	0.02810206367030165
0.07235132736154422	-0.007165332489196569	-0.01133176577277948	0.07689169272836513
0.0593709479333493	0.003939043899668681	-0.02336681655830322	0.08615259863859726
0.02151983677426327	0.0164349167733706	0.1184161263399835	0.02048539371395541
0.009567128922079024	0.0172137419161572	0.08006309489421592	0.003778585373749314
0.02323814711607629	0.02357390707673142	-0.02207815355327834	-0.01455672596259245
-0.02253646856016313	0.05312948976083866	0.01340377010519193	0.02372674052284314
-0.02995997604075874	0.04214765817259239	0.07321629655631107	0.007613153088172214
-0.0673306640402675	0.01634420187622629	0.01371327259858406	-0.001617119786796405
-0.08196927548630349	-0.02335834165593119	-0.02832801891536481	-0.08042051026376319
-0.06997969931048052	-0.04104327956233115	-0.01231460729391025	-0.1205373024181657
-0.07103309157665751	-0.06098308369375716	0.02340611526395987	-0.07396335531889474
-0.0569147973288525	-0.04383555312500171	0.01398857596559354	-0.02008110367802947
-0.03936622577264216	-0.03803357703461123	0.01138001303432194	0.0005562447361852371
0.02580804571886194	-0.02034429685429607	0.01845456025699954	0.0724487890892113
0.06142605178907173	-0.001421508720912845	0.01232461309358856	0.06276181051555738
0.03901276427306132	0.02090923806498626	0.02370546410245906	0.0534971974930505
0.02450858111643607	0.0376908569376003	0.006533768565913244	0.03300280868953315
0.01066381977552022	-0.009873412922970708	-0.01051171456183312	0.03247953618817066
0.03425551917171906	-0.008496698749582039	-0.03694447990453967	0.1576503468635392
0.04929899297712913	0.02932997810369459	-0.06755753888292187	0.1224888142678085
0.03476782383730895	0.0600758855379722	-0.07733071311289053	-0.07006855042946744
0.0233368645819374	0.03770194919569045	-0.06900702563528333	-0.1586846678489574
0.0004304666315438212	-0.000969117608828538	-0.1047697535657623	-0.2145830610386299
0.006331919199105428	-0.01902989443847071	-0.02180285859084824	-0.02734616958644276
-0.009365923481535714	-0.02044857804073913	0.085907997025042	0.1441995617389327
-0.02151156821368672	-0.0259360377891811	0.06354776140880206	0.09977055504427931
-0.02156899927037725	-0.05900539335020404	0.03303204922264108	0.06515979798101443
-0.01539819092857337	-0.07919298483903596	0.01158430161430931	0.01056281845113629
-0.02009967193259752	-0.0749159551012086	-0.04370723252689716	-0.007360389821268968
-0.02421002624491973	-0.03786871416535061	-0.01642764962285939	0.05271994196357643
-0.02016723944656089	-0.02075534676119756	0.05119686407345689	-0.02360792588236076
-0.02761334377202391	-0.004530303182396815	0.05287296243758218	-0.1005711238469158
-0.01589157013823244	0.01131961407815366	0.02413227162420254	-0.09025208625095775
0.00722708592365283	-0.02358197128377607	-0.0083131352070046	-0.01349890138645757
0.02792902965450881	-0.04424311523192392	-0.01112435880090255	0.03714357799203481
-0.01022819821152617	-0.03261648188258927	-0.02860995009027317	0.01392296257800157
-0.008185421668963092	-0.01278049786279789	-0.04018733455447853	-0.04848844656837294
0.003684990684672745	0.004973036743545541	-0.04511468811525735	-0.08055269670823402
0.0112754427212591	0.03551806879441156	-0.051497228891656	-0.0555013265819613
0.02278239689676785	0.07384380679289883	-0.01132006448908973	-0.02418051330371489
0.01207722725757514	0.07347050136967741	0.06855478005432072	0.05772401180869505
0.004595314738056399	0.07843471638619716	0.06066292654635712	0.08988991326410332
-0.01546153393277279	0.07947287208968648	-0.02063927759560947	0.05277620406778303
-0.007899304026236498	0.07332183738307832	-0.06666208454641057	0.02197465704650963
-0.02932261343762566	0.02151132617736131	-0.04052810416321563	0.01405224515879045
-0.0283148384705366	-0.004080743559042021	0.001057402693427691	0.02161511028932453
-0.05059546256843506	-0.01609143581130089	0.002507457735422848	0.003423583103255848
0.0162005296027551	0.006180028466412859	0.004812964751103523	0.006319654570184231
-0.008326148542698912	0.009041623895546729	0.01946595065387903	0.01564009384966076
-0.0217530480799636	0.006201776833328791	0.04640098791506116	0.03161079096577054
-0.0321200351233085	0.02049544087054926	0.02777537696120696	0.03815987015678032
0.002330395823447299	0.02930567616960694	0.01803098555730754	0.0695973931914801
0.02621810206750816	0.03959649314036635	-0.002370215839328103	0.1079322285287214
0.04263834892730945	0.02314752717042867	-0.04361154343789316	0.1350316121311719
0.04082533744831045	-0.01982313641577086	-0.03387470621104634	0.04291423453166555
0.02512743133882982	-0.06037905236503452	-0.05727787528100427	-0.1064875381346809
0.01496889831230715	-0.06873261646336772	-0.1022132283310034	-0.2181658349559377
0.02559329554725963	-0.04828990862519283	-0.0504323233199668	-0.1768960682917511
0.04026027110952479	-0.03644637821694287	-0.02479853575942989	-0.05129387554560395
0.01941009639319887	0.005207160564415707	0.0133927651226424	0.00172620027787213
0.01866373639862197	0.01697970547556915	0.1094755797449392	0.0104237925644201
-0.002383276207907045	0.002023290430681954	0.1986939698840537	0.08215081905563885
-0.02542095068099889	0.02137030094267512	0.1459083927452145	0.08124073565038811
-0.06779694343477637	0.03754570045238811	0.02688202014993211	0.007010952573203453
-0.06995972719310702	0.01552483460900341	-0.008762331641162982	-0.07348803966974002
-0.0320742230381833	-0.02269672532065871	0.00956590397820835	-0.06437812282069745
0.009023550662960582	-0.0186621778427651	0.04858026788938347	0.02469853226523556
0.03102990194920318	0.0008613587800657699	0.001594764221137372	-0.003553083716950786
0.04833116507137913	-0.009944302796027552	-0.007194512868290266	0.002052090919442538
0.0262282884031273	-0.008218934024949352	0.005751549948993891	6.004705670773642e-05
0.02993844868022603	-0.01267154481789511	0.03525969499301086	0.02065064680030672
-0.008526933993524208	0.01255308952773497	-0.01438225831983736	0.0002291853958269029
-0.01436450329380802	0.02456830991061613	-0.05086798006178445	0.006267722759817494
0.01196860157911981	-0.0005970891510167334	-0.08803278911834926	0.03942980247629868
0.03985668205043463	-0.0005307317276161298	-0.07837831064246942	0.1012543495558113
0.03059677265965141	0.01484538979041496	-0.0004292100156698985	0.08669620126219665
0.01028036014406979	0.01785542873491834	-0.01549693876021245	0.03491934013233462
-0.006234311915183712	0.001400779066333977	-0.04424439138389488	-0.02529959352847036
-0.01215990955837177	-0.008587711038796755	-0.01338981378453343	-0.1034226917984851
-0.06063009266507214	0.005619842537436191	0.04279771327594325	-0.05479572890790439
-0.06072841060532565	0.002031621842485754	0.02206309234265373	-0.02374050420402188
-0.02523353557161232	-0.01856661451491745	0.03765356204030835	-0.03648543995132347
0.005811835993497493	-0.04522208220240988	0.03025483552372541	-0.05104669117970163
0.03681358879806876	-0.05640429837864504	0.00773955354339475	-0.04737415191813111
0.06113264538260727	-0.07404438583486574	-0.03679186314525037	-0.08774458676585467
0.05430786452369608	-0.05034555644818189	-0.1075453503259892	0.07653651450748711
0.02927894518958619	-0.04583500686592128	-0.1805963398369614	0.2319490068538284
-0.00185228346660727	-0.03773516391704401	-0.1117797738387945	0.2025855455181015
-0.008638536051003417	-0.03197436004359745	-0.005343566228108672	0.005298695422690458
-0.0281715403797159	-0.01832912124085951	0.04307390245405725	-0.1774700648262648
