-0.008442649321858458	-0.03745756818100416	-0.02091988006196451	-0.001936467209910988
-0.003256869030400658	-0.005934316306820878	-0.02058063541070879	0.003170928839935838
-0.004181912352170694	0.05506663010463708	-0.02520658776405662	0.004575741504379699
-0.002560121971876297	0.07799100546423585	-0.02514492139496444	-0.002293984480487118
-0.0004707901143087124	0.09637548045761156	-0.02546313159271816	-0.003684444075046302
-0.01433289641120136	0.06296218654616695	0.001100364062569094	-0.01038422317407021
-0.003421339321420816	0.02568660345633472	-0.004150068662293198	-0.002959669838546901
0.007487170910587747	0.0358184433783108	-0.01864655532945489	0.00383147746492719
0.02580041780268435	0.03924217474835114	0.007742984093742588	-0.02190454473673698
0.0232778845555694	0.01285065764534708	0.04630230041104496	-0.03112020848286982
0.003338845048713276	-0.02189043108386493	0.02367602451389393	-0.01920001030542268
0.0008757051896517633	-0.02507153372895287	0.003577579401234041	-0.007460119403632104
-0.001068992144896691	-0.02465970973548885	-0.007892615404285312	-0.01188462311486994
-0.0003999093513206111	-0.01755922431549865	-0.01374638400454662	-0.006147611479932585
-0.005238485987062793	-0.05363045528845797	-0.01719667829450796	-0.007937438130605906
-0.01269933086097586	-0.04912093002114296	-0.01114109638098973	0.003003619088359724
-0.01291684896714876	-0.02580463431503358	-0.0009619762194758964	0.0138677920849745
-0.01022183885325673	0.001141448434655951	0.00590683657084083	0.01855404803109362
0.000942649448840282	0.05988942845305268	0.0194190416315746	0.0188008997014845
0.0104144103178315	0.1027429665190933	0.0114921919774377	0.01742646127313731
-0.01166578260036033	0.05704216911261512	0.007711279882021581	0.007923052110899952
-0.02134434204813872	0.004345111517947096	-0.009133360069910772	0.00121093319334992
-0.01045275570875226	-0.01468336062096475	-0.009446662079711243	-0.003936160707217838
-0.009981302358973917	-0.03075719977919365	-0.005266923720514263	-0.002134969982259223
0.004895982592684534	-0.03626300299735177	0.006570957930308751	-0.0004533216338214266
0.004962526922785612	-0.04598013689448592	0.002472088957237928	-0.002370701763701366
0.007889966691482134	-0.03854804656473065	0.001874411722510754	0.002644014247804165
0.01699971649197761	-0.003587572055848167	0.006622975808444426	-0.006160340449389587
0.01836517078384502	0.02012140202269275	-0.001426579381545962	-0.01243760885717373
0.01607663678922875	0.02408233239497804	0.004180686393143689	-0.008082242433588864
-0.001038705831658913	0.002583495533410666	-0.008003561846050587	-0.004038107459647011
-0.00299623118678177	-0.02722310316866506	-0.02763873765284428	0.00100299439998985
-0.006813397150223749	-0.03592074790205085	-0.02099591105338008	0.007416711527403839
-0.01061054581298767	-0.06459884511836338	-0.01610798381133962	0.01706852270599466
-0.01423049642042304	-0.07453388292931207	-0.01362983316435825	0.01141406639311692
-0.0007448342914754554	-0.03975728045755474	-0.005934644471787842	0.004299883534868327
0.0004131247291696866	-0.05010086563707183	0.01331312728556747	0.004311871200415666
0.01327044910547082	-0.04783254756597442	0.01776952934076526	0.009343979793538553
0.009480293023416481	-0.02468258977341051	0.03288297759104845	0.008718798526589765
-0.007597928917137058	-0.01366173111803833	0.02456800211760203	0.006361646632761914
0.008513545946354468	0.0142341722188781	0.008232948281459939	-0.002823443649475104
0.01976298170164147	0.03425947659570464	0.006296107815644773	0.0008741186035497692
0.009441150493368347	0.02812414129036229	0.007665877144589646	-0.002744264441147078
0.0006130578927366723	0.01260507871164462	-0.01229529230940444	-0.005060892875634906
-5.689385150421174e-05	-0.004459538308226287	-0.007142433704848294	-0.003456904479981706
-0.0007603069110824654	0.01810980582454849	-0.003203142006590177	-0.002297391915790359
-0.02506496858251246	0.01112652517312675	-0.009871262206792276	-0.008143309850389569
-0.02857593785484503	0.02068231194615932	-0.006213648090811765	-0.01431334980082317
-0.02055461214756294	0.01377783931981838	-0.01464549693303261	-0.01767510201823783
-0.01190470675302648	0.01038908473739016	-0.02448147860167805	-0.0138604890856972
-0.009575238948548847	-0.008448260115041656	-0.007131105848084999	0.00157408234923499
-0.003274462631571801	-0.04554086743542631	-0.01367338986726445	0.01303526988442944
0.009627034422732281	-0.04637244911663392	1.153502682172087e-05	0.009127287437745516
0.01696370123152226	-0.03680866137920748	0.003530866342434771	0.01988393099551436
0.02221282628908808	-0.001685810605586994	0.02401885378358316	0.00411770790480817
0.01872244209285437	0.0319287084280884	0.02319346719102676	-0.006984896866168642
0.01527060107135667	0.03687959600953681	0.001821612348384859	-0.002254977906835891
0.004827451936867409	0.04693077054391231	-0.02121115146395622	0.0002351175702944549
0.01194794815345085	0.06480214976132377	-0.01263423151247413	-0.0003766649213120198
0.00738669736197934	0.07035835076611867	0.03099081196419047	-0.005286456796297164
-0.003525838923742715	0.08490444187411125	0.005294081735201916	0.0003562467131729019
0.0009394464662778081	0.07509352934821394	0.03063798468385241	-0.01029047153827807
-0.008279353104268711	0.03027804935388433	0.02454543710902537	-0.009487637615000601
-0.01132301159467282	0.01898406579098345	-0.004422573240342269	-0.00745439623204275
-0.0169286809232567	0.005482219012097988	-0.01393121210268803	-0.003066758520866182
-0.02547399084309866	-0.01328929660356269	-0.01621979178579666	-0.0002247440889530832
-0.02115781811240561	-0.006657312550896945	-0.01843948921632911	0.007227772377333242
-0.01772385763966431	0.01992389656195094	0.0001797550363077407	0.01035002284259614
-0.0146862678604851	-0.001345101003756156	-0.00330525568317601	0.01760717918236715
-0.01706659712986438	-0.03683741221890609	0.04459288939117662	0.005282129341685678
-0.01566316561891145	-0.03562859390482939	0.0373441855849344	-0.006181209011166789
0.01089113996101429	-0.007323669007792525	0.006660522518635807	-0.001782621487975639
0.009028923778298269	0.00494547894806464	0.01004691419648285	0.00311959379164181
0.01816222891793534	0.006151879617764216	0.01057096635954555	0.001104659527696218
0.02624860798580063	-0.001144323397413704	0.00422241657284006	0.001948889339671552
0.03106148414067564	-0.01433216075511205	0.004463360889372102	0.002811023410014264
0.02502387929306335	-0.006811564425910938	0.003439049541182099	-0.0005394505380291608
0.01700453089815243	0.006433169432957436	0.0002884447231790611	0.0001026271389998501
0.0130347534275947	0.01284678866379828	-0.0132115873919444	-0.002208656974451358
0.007629664866182157	0.001227722763093846	-0.01275105494014344	-0.003862750347925386
-0.00734902037738712	-0.03374061025283551	-0.01127215639499111	-0.004148735888717663
-0.02992538527063324	-0.0877674067332937	-0.02073848815140494	-0.01717223465625154
-0.02472704589454992	-0.07988810911782879	-0.02587711395147597	-0.01036396067166397
-0.02100417439362342	-0.07258998604701997	-0.02036596950862271	-0.00109434977807957
-0.01591826747275724	-0.05276776522024868	-0.02250351242435694	0.007410147269340253
0.002601490625857451	-0.02458866996583786	-0.009396133217479643	0.01876973249164813
0.01236008006531751	0.006919891445042964	-0.004461899045613925	0.01935652123589937
0.008072501568911043	0.01713530953927862	0.009932402920880183	0.02624626122696189
0.01189747988327336	0.0389083126217056	0.0030867239505111	0.01775957430135118
0.01260238587085846	0.06606414878906659	-0.006613304059597584	0.007207410587280394
0.01083808936358315	0.03541111929450046	0.003368842956069244	0.0004768142821758169
0.01573389393176169	0.03211026220414961	-0.01018561526051943	-0.006007669417087877
0.01574273767345487	0.03418338565240164	-0.01309144970193589	-0.0100675689219732
-3.864257972841425e-05	0.02647059829847282	0.007087492536891838	-0.005775065122525059
0.005106908136327044	0.03407564926147801	-0.0001187475676305734	-0.000300046050448419
0.004092728627816311	0.03152752792640205	-0.004782694083876844	-0.004060930306713444
0.004109990344718748	0.03110603601857887	0.009563095289215695	-0.006607018191794287
0.004167822081703783	0.004701949479924486	0.01521585334868035	-0.009111862627089714
0.003013989681759101	-0.005833761639652538	0.01305703563237999	-0.0006358313132409012
-0.0001488124496830089	-0.04997630403789539	-0.004828210389076104	-0.006814822087184555
-0.009305003378317285	-0.05941025434786303	-0.006093937281441726	-0.001352674739958038
-0.01754009872961816	-0.05968394125880083	-0.01243611868214398	-0.003178941763327793
-0.01691084441096047	-0.06084928447726745	0.002402309647557774	0.006603746842659664
-0.004187636724635468	-0.02053135328305814	0.002445568018575789	0.003174829587149333
-0.0009880005783103084	0.003197939099258647	-0.006736251613540684	-0.0004548382988571977
0.002750938989146381	0.01156713549853173	-0.006763350423290224	-0.004194082095898684
0.008617387987435157	-0.01451065684201074	0.01564674234798225	-0.00812046595879772
0.01212632179617868	-0.004687304168978892	0.01523178191191763	-0.00490255096164962
0.03058214823925127	0.005188255442742921	0.007135655590933712	-0.003867154665044787
0.02824060360633156	-8.327680125792545e-05	0.007222525084904327	0.004298324863373057
0.02949446384174626	0.02004081147973554	0.02321037443324524	0.002622754417360526
0.02082021763193276	0.06803758934855764	0.007755982650771197	-0.0004655440991873599
0.002076777267345808	0.106480859776611	0.002912221766578984	-0.009473144125713161
-0.03339975702676439	0.06488767940984939	0.004585176304574744	-0.009802200896273853
-0.04455844078635731	-0.02837647235955981	-0.005457802833514802	-0.005258331179003355
-0.04855634230641714	-0.05929549771936134	-0.01548559799444162	-0.01705184913334935
-0.04992680619471478	-0.06866229824222303	-0.02605114583898895	-0.01595970088376861
-0.04156064497765838	-0.05882241426569425	-0.01113755390034446	-0.004436743406257406
-0.01054460193005379	-0.01912775955943222	-0.007236012470677555	-0.0005062794207004244
0.01322953739512042	0.01673534118278	-0.01983778694154687	0.007370038205316271
0.01665123845570862	0.08312273339671454	0.003915454302818274	0.01185076969960327
0.01737111655543382	0.09866039849964611	-0.001626370573374811	-0.0008986313853606941
0.002724461103348312	0.04657027180916665	0.0003593141841235936	-0.00391001322652222
-0.001524425450983614	0.03026605359356569	0.0143759554236574	0.01065665884960872
0.004453169485039665	0.02269332470508193	0.0171019732940695	0.01879555522228012
0.006268936035241361	0.0127346865944654	0.0165632413969391	0.01894100174458865
0.0109590162689935	0.03169140641994277	0.01498198454257246	0.009562280481297137
0.007683666654852699	0.02566073900346827	0.007449667057485011	0.00231955849698972
-0.00451604764296028	0.009999475989525105	0.00507867703918772	-0.0009064893409162012
-0.0002347573621652539	0.03620056026171779	-0.01135073103810954	0.001704654124746331
-0.005181559138184288	0.03080149762053113	-0.02503692599403105	-0.01194894120035747
-0.01697260887408831	-0.06195905282203085	-0.04337594884167111	-0.003282371844217584
-0.02133666076327323	-0.1708575343765815	-0.01962008928601703	-0.003073533578203959
-0.009909898017510008	-0.2371752153355816	0.006606720609018102	-0.01680532279626681
-0.00622645625966708	-0.175775913480051	0.02169458276592768	-0.01700147172730303
-0.0007888366359036292	-0.1019314138570928	0.009621608331089812	-0.01339587355858989
-0.00851979800955906	-0.06767046049923769	0.006716952653547961	-0.002173085688063341
-0.001499688003770217	-0.03314944798963977	0.02286728768636598	0.008216586770334655
-0.006489540051644881	0.03263178876395992	0.009801266409493017	0.002751049073776836
-0.00572292109444121	0.08553654418050505	-0.00378990038385055	0.0001590917463688396
0.005640030375518797	0.1534264115475664	-0.01230377437673817	-0.0005209274111293239
0.01382867784550327	0.1635951532327277	-0.01824061172774766	0.003092445320511374
0.01518010030030459	0.1178069412037366	-0.007559849654373178	0.006400458234060928
0.01179757003302907	0.07006389072976725	0.01908530141183529	0.02323193955944431
0.01939302052778039	0.04631160649001884	0.03299688124000417	0.01838504608703356
0.02815277218501026	0.01134156321306587	0.0155694608837702	0.009488830223578385
0.02219429851060007	-0.02186410956243529	0.008405171462219228	0.006280431255573361
0.01533797441415403	-0.04091544894481796	-0.0004564938100075279	0.0003798655364627083
0.009904879334507356	-0.04804672642551413	0.009283537855293813	-3.166762331126069e-05
-0.02671428763614466	-0.09224586872257118	0.004757549605807591	-0.004837667827274085
-0.02273320390989927	-0.07854330278878813	-0.01197117145103508	-0.01500535010581167
-0.01592572784566414	-0.04286090195460292	-0.02036195693898882	-0.01215549692739139
-0.0141470395416117	-0.0005465889197977551	-0.007815970105559863	-0.006545118704391822
0.0001224747964406204	0.008775809596396619	-0.01424669516426645	0.005097247748698407
0.01329768307603669	0.03090026986072473	0.004102149210093413	0.02553415589638217
0.01303152273106096	0.03716869083384799	-0.01535826884366581	0.01362404815857955
0.01764777204158392	0.04520191493807287	-0.002869086921431288	0.005912664227455376
0.008863986776211448	0.03727861797248438	0.0006398349735389114	0.002069531931804456
0.004876620165904715	0.03057770486474502	0.01774348333485928	0.001341168422393347
0.01224347796156823	0.03567419341740698	0.00879345562318116	-0.003082361047650222
0.01558678349635976	0.02737501403130552	-0.002996160170219222	-0.01386581971216651
0.004369605877559366	0.009204005356770635	-0.004439419148836893	-0.009834542097671052
0.001214137413031649	-0.0005991889753718931	-0.006613632859521191	-0.01204395410610409
-0.003300496567734216	-0.01149938693079125	-0.01617146760752494	-0.01076390041422731
-0.01416922678139578	-0.04339282003809334	-0.0124295270341754	-0.009031893130825148
-0.01544088072189055	-0.05361988716136042	-0.008512074518409088	-0.007171350897082732
-0.004613873399191781	-0.05084465545724348	-0.01692519373889873	0.003299234777824395
0.004022160098457361	-0.03057353351177064	-0.02728080765881702	0.01075803918871791
-0.006238495461742375	-0.0398552983857254	-0.03154952322793	0.01058966584528418
-0.004145995639546369	-0.05474252615533476	-0.008617109981568396	0.01580338711581957
-0.007340706825125239	-0.02617793386979124	0.02099353598747041	0.007227795137988998
-0.004784448263357922	0.04724506333160739	0.01703966868158956	0.006961374549589765
0.005587771948267668	0.107999436463594	0.001451804231924695	0.01111412052041898
-0.001852777951993057	0.1286529598210515	0.01127610250948832	0.03206222690701625
-0.01252281761660319	0.1066664467176804	0.01946220762100396	0.02707392010905042
-0.01951976645440935	0.03481763345977594	0.03615949699675291	0.02659790414148437
-0.0177282135240216	0.01472030495837152	0.02769810047933764	0.003764850651499641
0.005579917784993836	-0.0114645562489964	0.02906031513468261	-0.0274599037515889
0.01312650453688561	-0.06911610142183609	0.006832912989964227	-0.0565468175891457
0.0123669361238372	-0.06595565997431219	-0.003967904731290794	-0.04770680049036374
0.006665419883023846	-0.07544732042903361	-0.02396280702183052	-0.03759839724557078
0.006834288684100456	-0.01757012952372846	-0.01798349933847388	-0.02290464570131522
0.002652994324963312	-0.004192091442681301	0.0002064009896020654	-0.00718955001384364
-0.003134503102006352	-0.04143395382495729	-0.001428244093143982	-0.01165892723120118
-0.00489070879956016	-0.04614929381800631	-0.003336078903230544	-0.006071542244923897
-0.006695431878222722	-0.04505345414732546	-0.005046157744063673	0.01167511156388686
-0.002171813707913048	-0.02140901516279698	-0.005613150217915272	0.01495795124787955
0.002458028963830914	-0.0133399011295782	0.004365530761171254	0.0176340909359008
0.004836787460482841	-0.03220885057741761	-0.001603163833474561	0.00746140997286883
0.008418170491891572	-0.007933787055371139	0.007569564815109849	0.0001454744197978302
0.009304685407840584	-0.003607826959761232	0.009983007001783827	-0.004961258145296158
-0.001060088594288817	-0.03433320167530856	0.007743114437298598	-0.0005055972674980079
-0.001759118810244946	-0.01141807083512851	0.008051198004490548	0.009940060982060003
0.002784130320275171	0.035339630204405	0.005394005409885015	0.003216898988323997
0.008628934929257169	0.07943884420129249	-0.009375812395108577	-0.006905870432412666
0.009825000050852599	0.07658548801540414	-0.02376250000608919	-0.004875274878313249
0.005562659614615503	0.0549557619531978	-0.02190937262892981	0.01257281082580757
0.001562215266618565	0.0102007900644676	0.0001222783631549374	-0.004180255664427574
-0.003901438804622557	-0.03128001024307863	0.02842237194547364	-0.01469761032118046
-0.0136615738248233	-0.0298668017493418	0.008576984656940609	-0.007149553242529422
-0.02038979015271255	-0.01137960609730581	0.0005193585499708413	-0.01265039160198624
-0.0238391821759352	-0.0003254599781703625	0.0285044562810737	0.002206564065993528
-0.02631846167882592	0.0251726032265384	0.01131980769416733	0.01541542253845738
-0.01433507117161778	0.01845350337107955	-0.0007564719431442928	0.01878700802694207
-0.01118935906883364	-0.006396900694679721	-0.002362280943338822	0.008435733120439701
0.01169160187379321	0.01887995325845205	-0.001928276141849504	0.005005392774673561
0.002344751760369511	-0.001704150124057495	0.002729317244879944	0.008817275393306062
0.01171923952732848	-0.01471404271581638	0.006586154582888206	0.01658129571850146
0.01971570168789585	-0.024366596518953	-0.002686242631386717	0.009365342730855262
0.02894082907056176	-0.0183163582600765	-0.002793556945600742	0.007758213799142469
0.01936448343100267	-0.0005229023664768943	-0.007872904303238228	0.004370520694728834
0.007666967574383413	0.01125364528034391	-0.01419322670808354	-0.0028603574376293
0.012603087945868	0.05199628984861079	-0.01945992185239719	-0.003880719698452189
0.006523127388923968	0.08168611478425022	-0.02514239279597167	-0.01515683552182028
0.01355696143289631	0.1048862613971616	-0.008391672577565883	-0.01289891541694442
-0.004255230848570495	0.06751435330932404	-0.007537372033842799	-0.009804304039392836
-0.02440667483696666	-0.002131678463429649	-0.01418308098086152	-0.009645433855404593
-0.02889224347569766	-0.06123875831497767	-0.0004060646883925255	-0.006598838760740173
-0.01833610241356678	-0.06741004448610895	-0.01159582395544118	0.010668610884849
-0.02734570819098119	-0.0956200202101508	-0.004277163060446163	0.0147864335756574
-0.0195635410468037	-0.07645758877910805	-0.0144644051699331	0.01222342676471658
0.002984941860000952	-0.04818159490058211	-0.01823185248023742	0.02306007723099884
-0.001203046659283306	-0.02932484456450804	-0.00411739478082434	0.02150587982500493
0.007218022120443357	0.03848687526170574	0.05682533210690737	-0.0108522734258236
0.01010213842702497	0.09306060273560068	0.01963791401444005	-0.0166776668438044
0.01130292293540819	0.1306065517807436	0.007539915075773427	-0.01129587168776945
-0.002036884795109343	0.01531577068443116	0.02751188684398168	-0.01338884278455785
-0.003222558958589487	-0.08070084690134681	0.01679162380259365	-0.01300859421964009
0.006294714067555582	-0.07156789036252038	0.003126067782262762	0.006854288231201397
0.00619369615492352	-0.064464911876687	0.01731565721808286	0.01482182180868737
0.0164367145427848	-0.03983882280641968	0.01528606804913933	0.01171074321163886
0.01798631454329657	0.00986698635950309	0.003373195809628399	-0.003046235342604441
0.0134892477390479	0.06727625959735449	-0.00920383161501725	-0.007013181029267622
-0.003717433805573123	0.05343377369843337	-0.0382133089358997	-0.01532352354286429
-0.02044268116861811	0.04257057779752386	-0.04356580469907739	-0.01662070354239736
-0.007207758743304245	0.06520968793799019	-0.01932916625694871	-0.006966425356602024
-0.001982610157559837	0.009953111075648195	0.006869379630817173	0.009180927743707021
-0.0109243116643797	-0.00797388998086262	0.01235441897229024	0.01005459445855443
-0.01408382878089599	-0.0199880771672668	0.008791338368171593	0.004665972194999013
-0.0001445027646984318	-0.013397651385411	0.01254110356453568	0.005121573616816225
0.007751272995698374	-0.02155081567194819	0.01536811350872973	0.006354591457271829
0.001137121926809045	0.008688299527845673	0.001571323919380524	-0.0008760067511437613
0.01201975917026176	0.03764618154157122	-0.01048985838659012	-0.001463587149785329
0.01511079109548243	0.02385413248916253	-0.01143059500702213	0.0002980195466068486
0.008153999858920083	0.01757009055888096	-0.004988958842760568	0.003506644916039268
0.01032788438254651	0.02571195646694088	-0.01811856871135159	-0.00315309466964412
0.008593326106908487	0.04370930072498456	-0.0226178611125176	-0.01045672450760568
0.005331971928494535	0.04358529424053818	-0.008842399448574846	-0.003227845554056573
-0.009209014502301318	0.01096508595213174	0.005826598693168497	-0.00581389131741995
-0.00982546789715856	-0.0205737426392038	0.0006856237309342983	-0.005642566395410788
-0.009794036656249311	-0.0479137216763687	0.002357043899404868	-0.005150137005205152
-0.01225260803581217	-0.07782499027753376	-0.001235205854007226	-0.002962611971104337
-0.01015879397058358	-0.07043171040124378	-0.004085545322689828	0.01029492976174314
-0.008699743139027114	-0.05705548625790741	0.002712499483523033	0.02662721767831939
0.001862078478721279	-0.03057890812564761	0.01473983903741322	0.02380018266466249
-0.0002442735043931383	-0.0338548297641643	0.005775878699754726	0.009964319533816738
-0.001074545317260418	-0.01815470413388629	-0.001105957758549984	0.003668833740296959
-0.003234580572334565	-0.009293155526528979	-0.02283940312998848	0.00364118271192603
-0.002324052304845723	-0.02134663855295334	0.01855117731583305	0.007462192710456198
0.004788483015986296	-0.05015714262793212	0.01849090933039592	0.008127472836837419
0.002047673908363193	-0.04331055207805178	0.01333768885077078	0.0005796798967054557
0.000684699273099326	-0.02801666516592683	0.007434358323947276	-0.005903496185764184
0.007920453834368048	-0.01443191645643454	0.0106954653766462	-0.009487243807893276
0.02670815917058747	0.04504925249523951	0.01899860810301512	-0.002314639223405507
0.02662433663676424	0.02657005752724536	0.01485734764003452	-0.00261369478991473
0.02879006216453143	0.01834587441513672	-0.005997603210412287	-0.006952052850616635
0.02730618326048138	0.06142451730786441	-0.007407935975245795	-0.01015208482864371
0.01643189267681678	0.06364389841601097	-0.009963071949756659	-0.01915924140098644
-0.004162873026425415	0.03113467810463509	-0.0148275976686757	-0.01744078933111208
-0.01221593445904213	-0.0007388349250987225	0.00399892320575727	-0.006973377677175181
-0.01474118107826309	-0.02113581750585328	0.003450341650100084	-0.003242714816652825
-0.01858115025022187	-0.0769072632209673	0.005636611581574857	0.005374068250707359
-0.01738455465670933	-0.08605338125976558	0.009164949013959997	-0.004613330984202279
-0.02080128364179672	-0.05654047601252387	-0.004850535039761929	-0.004849419169630177
0.005813857857986762	-0.009135424797193576	-0.01380179844961063	0.003447951531420717
0.01038727678596895	0.04094697881418994	-0.003463980725175885	0.01550454355078519
0.0002884214915433685	0.05818172060799702	-0.007743180968356468	0.00968966742299463
0.001993821628617012	0.03614781247399239	-0.009459743782391311	0.006586098726981485
-0.002628336692818445	0.009425106886945598	0.0007429006849334487	-0.01242535086254002
-0.001574784902068251	0.009174496317481537	-0.00863168422532606	-0.01674103107944813
0.01332498697964049	0.02514439765414519	-0.01211976718500084	-0.01700441559676263
0.02029089984214104	0.02950555094430391	-0.0074296916246104	-0.01585499408742473
0.01645679552050631	-0.01188308436207075	0.0005315383457078395	-0.01198568970606426
0.009676516787018641	0.002296620608605418	0.007546860819954028	0.001333304493066252
-0.009284364634010655	-0.001502095452644675	0.008795904001581124	0.005989452532776527
-0.0207907471791538	-0.02859820004890033	0.008314999926535876	0.003381673733424069
-0.01723509278637147	0.01636438005789831	-0.004715278799051572	-0.004010267607049283
-0.02271984689798516	0.03855406132199176	-0.008020233909993894	-0.0004170945390605993
-0.03199611808186117	0.0312646511282878	-0.006724701310143735	-0.006014913770815778
-0.03621358531911689	0.01031111497418618	-0.003910728877174816	-0.003367355816322587
-0.03766667400837458	-0.03931216898031197	-0.01395806539242363	-2.932817507389095e-06
-0.03487494389653573	-0.05966040991693469	-0.01388816848001171	0.01461272355594116
-0.03021682272441853	-0.07611430667574244	-0.005230315269845309	0.02034831187851794
-0.006998058470856836	-0.05543081176410802	0.003246162438240174	0.01492363135176031
0.005984726684393368	-0.03470495079516288	0.005073979600008397	0.008754424428949879
0.01963024246547824	0.03774388580068358	0.01646280840206846	0.006354267501543743
0.02338648615983815	0.03588582518601889	0.03484293521188739	-0.0006926776520777933
0.03346881857398866	0.05937378500372641	0.01360700172063669	-0.001835124787110018
0.03755082679839627	0.06359293336823346	-0.008175663432783829	0.007225931454099874
0.02132154672419058	0.06464297117246687	0.006995043450168034	-0.002072325779130788
0.01349949185894019	0.05096875404038179	-0.0004987401712816272	-0.00625150812620623
0.0008242290970894423	0.01671696857169687	-0.0007836017733509782	-0.003984732522809189
-0.01059439739368245	-0.01138916527471087	0.0007030527629350785	0.0005354605526158779
-0.01757313633600654	-0.03530782955615114	0.003264736119657192	-0.005687946798094388
-0.02454950416643674	-0.02886665087477283	-0.008330917857335651	-0.002989803643012111
-0.02206413744968714	-0.02478478107298699	-0.02481700620538155	0.001996580712963329
-0.009788113059131756	-0.02090027286696116	-0.005582043115010932	-0.005540604557756139
0.008127782100888759	0.02940023311054112	0.01700755875156927	-0.006893289540537363
0.0116584806865158	0.02610164590789756	0.02583894793466571	0.003465832400666651
0.007860517558799327	0.04064198287440722	0.01539048670577424	0.005932568177190635
0.01314389525258724	0.02987834897297072	-0.003566664498473349	0.001818207249208564
0.0111795010166445	-0.006594843427668344	-0.0009020972164581353	0.002642563944640878
0.01187456184435448	0.01592036657647582	0.01081935641585499	0.003601170468463659
0.007331244994503691	0.026838914946202	0.02852480134153482	0.01515464090257251
0.01556686837016316	0.01719842020131218	0.02946126847299443	0.003325356783431345
0.02196990571312137	-0.02810553694565491	0.0184720062096502	-0.009123694024360569
0.02423001926891063	0.02391660181209144	0.006645719605453922	-0.01434884089880797
0.02781459401200861	0.04644618563940841	0.01323130543685559	-0.01001486611721396
0.02881204345805144	0.05975724400464741	0.01262423622886371	-0.007805460521543864
0.01689708863111903	0.0504186871712141	-0.01748144031602395	-0.0154859790522772
-0.01373916638710221	0.03338711655443113	-0.01928958750173541	-0.007102902457727403
-0.01775042256385539	0.01774324513562054	-0.03080135587102616	-0.007083038817987745
-0.02570383113059967	-0.03748831545936608	-0.04073259689394287	0.003429002414466228
-0.03479015893908702	-0.07175361869364237	-0.04864241756610486	0.02211685633811963
-0.02213530563138753	-0.09151237650972463	-0.04725609929425544	0.02635260972444834
-0.01218985304467181	-0.0568991179095295	0.008209491218280086	0.02087296556951319
-0.01710144599067032	-0.05789901517076887	0.04451538477471036	0.0193737791184202
-0.01098132650778547	-0.05871023247792601	0.02293074437257856	0.01586590937100226
-0.0109077791466046	-0.01838718161026293	0.007678397092798869	0.008203499036480559
-0.01705348316256355	-0.01802434453233829	-0.009800004310283951	0.0006806210318009832
-0.02268297893514093	-0.03095697879880992	-0.01320026185687936	-0.004480814561221434
0.006546030007144719	0.01529374416155553	-0.003372245018201856	-0.01121281857274608
0.02668511140965269	0.05455983015482395	0.005494389241856927	-0.004783855970394052
0.02097580228739686	0.02019470734464183	0.003780738033531442	-0.006709192195443871
0.01655737824251487	0.01813070864904823	-0.01023794428810999	-0.003363636503596967
0.005492511398735311	0.0231738920958947	-0.02435463987042482	-0.01515773475084005
-0.005165281854460895	-0.03022994829234475	-0.02030439706765846	-0.01672813298159982
-0.01768851913146036	-0.05085274370716553	0.002786045522858879	0.001487795764211672
-0.01817190065335786	-0.05198023830040475	0.003320363767479115	0.005453660229823742
-0.01647539501085803	-0.05571402879957334	0.001240434302787711	-0.003124400657434597
-0.00437708506224962	-0.05383592052808431	-0.01717159877363217	-0.007494074292632273
-0.006360721539673949	-0.02540334370132938	-0.008311021787963727	0.005892745279687809
-0.01210518726008004	0.007276291420519931	-0.002308813211631615	0.003697138668527475
-0.009590244984709232	0.02893059124510667	-0.004633121999058302	-0.002327966395781787
0.002749602724979339	0.04021051652917532	-0.003347121612876379	-0.004213624043319243
0.01299988866954212	0.04966730279461658	0.005349417609687246	0.005396370886110072
0.0174816945732399	0.05527065971564835	0.007007416014780851	0.01653034449954267
0.02078653578413112	0.0544585328954051	0.01873815590628089	0.003228320495798818
0.01860651110533326	0.06915964401073357	0.01711510547453672	-0.003063696731029994
0.02756590056296663	0.08417734406670163	0.008910431809897168	-0.0004070228286407624
0.02446225346916117	0.06624514480508022	0.001278469393912006	-0.008488374583548047
0.0102954737737167	0.02145016787533833	0.001311986122120435	-0.01047335279413607
0.0005293890079411106	-0.005425692459179744	-0.004546041961536905	0.0006492711501800408
-0.002905410300863661	-0.02506825176704252	-0.006242884645344825	-0.003548702334090362
-0.02131477429038277	-0.06680703264316708	-0.0008958414778820507	-0.006661203024522341
-0.02748643688041498	-0.06891512464409408	0.005518009838005365	0.002020922616108618
-0.01044581970871618	-0.04143822262422274	0.0005112335516558528	0.003089534663060705
-0.004580359810689267	-0.03596788422925577	-0.001427939366862124	-0.007308532640739959
-0.01316529341018805	-0.04250930388236315	-0.01010750503125465	-0.008342644664906388
-0.007165684403968127	-0.02148801797019838	-0.006465589423503817	0.0006974397068462054
0.008982812567900669	-0.005916555139366	-0.003780130675288403	0.00775225882298088
0.008851941065336398	-0.008597881610176552	0.004916598092046679	0.01456334758871587
0.01852286308300287	0.0003779611127140906	0.02426926587964181	0.01948058848328527
0.02820690010714289	-0.0005584337081040148	0.02127118980256084	0.008561932536337762
0.01559410448057964	0.001160781035742801	0.0004557874073970857	-0.004809201149078715
0.03169802912444675	0.02607879163684447	-0.001076555589098731	-0.008188883468020314
0.03328729562567293	0.03749076576334327	-0.004045935309722846	-0.001533103943699418
0.01023070791532799	0.0296761113420656	0.003863155933258955	4.87452053961218e-05
0.005273065603162999	0.01858099807582234	0.01725569843222969	0.007420679882179738
0.009863699401562178	0.02062570093046324	0.01240073016453244	0.009512266840816089
0.005036858233910625	0.001796673733038981	-0.00452855850193136	0.005685704283903853
-0.02257953456292829	-0.04221281327974237	0.005020142659323278	-0.004392029888683388
-0.03172084966621082	-0.05584128611208845	0.0005700746164580691	-0.005171427215077325
-0.0227197569382602	-0.08361359577983518	-0.0004630369899088776	-0.005255334703119828
-0.01998485189216353	-0.1157087425445216	0.01840827918264562	-0.0057755663963715
0.0002625352784460394	-0.06731544981002821	0.01457202501860472	-0.002994210856950571
-0.001209577900745064	-0.02658380440986654	-0.007189395854122323	0.002350642838256757
0.004801825350116706	-0.0008594758321689499	-0.0280668880040209	-0.01134485148248638
0.002685205624647378	0.03327444319406521	-0.01009068599345988	-0.01018440933897563
-0.0007941192478408591	0.04754281834711917	-0.004487064153052771	0.005053838944686186
-0.006944369050516795	0.05815379808984696	-0.01054801032391934	-0.00597921986223934
-0.003848084851316133	0.0550344369044883	0.002176421015496944	0.004934326239702161
0.006094702471164634	0.06811375950999848	2.706091723581811e-05	0.01083359353247914
0.00130864455998152	-0.004803988944544191	-0.007202965866949023	0.005637410148794628
0.006340765789958057	0.01044216169950964	-0.003551102609061073	-0.009730529301870195
0.006703936959593921	0.03955612754485201	-0.00870528566927767	-0.0108825506446959
-0.002546877549020137	0.05063928858545805	-0.008190053919726579	-0.01001394071106911
-0.01141305622467015	0.05275265189780452	-0.01127919902073834	-0.004826157136151681
-0.02700992134886613	0.05373292106948398	-0.01670992956044799	-0.001110591946818785
-0.03033921143791773	0.02376279595213307	-0.001769954439531787	-0.0006225832070909511
-0.0276624492916708	-0.01245859488839133	0.01070434165217853	0.006788394480907548
-0.02544049404014029	-0.04183311206239641	0.007087695179608418	0.004086694179490034
-0.01324516381910559	-0.06948819204627071	0.00516143477573775	0.006049392301269301
-0.00795854227355986	-0.0702925157421995	-0.005882442347856775	-0.006120828914368968
-0.00322065035942449	-0.04371442633983622	0.006373559447285053	-0.0006895739653600618
0.01363153754166178	-0.02151972932557146	0.0151888258248092	0.00579810474750936
0.02344254914602377	-0.001272498377339414	0.02099957780338654	-0.004740852930894632
0.0238710875036512	0.004573113430215255	0.01448094994062369	-0.01070625817021974
0.0198057034673477	0.01175268076648753	-0.0006227448892147946	-0.01044419877506255
0.01886925904432837	0.08032725810202251	-0.01072177770389151	-0.01548088165778995
0.01264444923257931	0.07934938594643012	-0.009771294240334231	-0.01120583230354564
0.01871229224547118	0.05476915431534468	0.00321869730844328	0.004016668381885855
0.01167063500590341	0.01732358022022997	-0.007428795041224632	0.003786277051612194
-0.006844130730366603	-0.01857865482770181	-0.02225907305129186	4.558621072059852e-05
-0.02158890092245589	-0.01429853902894296	-0.03232883792611294	0.001826914872477671
-0.03074484556884958	-0.02157922057418716	-0.04227817419051753	0.005257627499494029
-0.02304624033608385	-0.03568314754291671	-0.03549993547192565	0.01175256403336624
-0.01828148560829176	-0.03567209355236161	0.03915893093644417	0.003710030099611627
-0.01957879759725705	-0.04301980957122196	0.07212854968336893	-0.007015190208095615
-0.0235802157380275	-0.05274647150083715	0.03804604283172745	-0.0006362701637508475
-0.01572763999594765	-0.04355774204907829	0.01825014416586904	0.003050874932337441
0.004699850571104998	-0.007793759873378475	0.01526613587018466	0.01342267046297147
0.008807550108190343	0.02368094815262724	0.01225313845208417	0.01380031448719242
0.01918947887558611	0.04677414480908725	-0.002829031583262365	0.01067614754683083
0.01705073332000806	0.05568788708487583	-0.01910938924442025	-0.004567839676727799
0.01300240554529355	0.0488393726582354	-0.01455728655650327	-0.002431323865587276
0.01930512917351156	0.03314518584540103	-0.0161875784266536	0.006547798587873126
0.02417629460112861	0.02692751892388003	-0.01222030275043733	0.006282111244119285
0.03264944385032133	0.03512653778356351	-0.004331438543520439	0.001789895148208319
0.03534135068068107	0.03411885964329232	-0.002414195176394583	-0.007406544689195567
0.01429625482931995	0.02324538488525934	0.004964579688579953	-0.007188834631106459
-0.007468424677399119	-0.02847372661657509	-0.004713074077312953	-0.01541437754279478
-0.00711983542418368	-0.04131997434633917	-0.0007510152307723785	-0.00639510368936108
-0.006758196666459855	-0.03738240690824664	0.01248210560565755	0.005201550643515919
-0.01333041625135873	-0.04303826383260567	0.02686454251121644	0.01888651897346263
-0.02421281197711402	-0.05439226960724546	0.01580854978304493	0.01763720580383619
-0.0070058783003541	-0.04499222002237977	0.01819674805738023	0.01540974539232331
-0.0125637271741996	-0.03684688840307798	0.01331063058891924	0.0148332480251769
-0.004062460358076139	-0.02956019958331636	-0.008928755411429989	0.01122403273097233
0.008118459903562157	-0.02328261375958162	-0.005704563878239789	-0.01042162232289757
0.008243286906114823	-0.01073682034378252	0.01034816806837694	-0.01188891023490296
0.01799782014271625	0.02987558247276305	0.0110925259600342	-0.01338847524588658
0.02351927736128197	0.09511197538912522	-0.008956790670323385	0.008694212077763492
0.01395158852522109	0.1022190651856729	-0.02106531334849905	-0.005138143507374504
0.003665432181991156	0.07007288976891987	-0.03149450358129406	-0.007705370923698611
-0.002923516181865973	0.05261285200344323	-0.01842301506071545	-0.003161663367194442
-0.006362534489047841	0.04124456529412719	0.004539749486919193	0.001876475745279396
-0.01463755053398428	-0.01233911916542356	-1.778297972748218e-06	0.004434132641511226
-0.01166093300758698	-0.05602943385147059	-0.006966156451273488	-0.001753616766139604
-0.0240057674970978	-0.07547570352262968	-0.0129290853579151	-0.01002906425768986
-0.02174193301632918	-0.06732507792963233	-0.01591561613596204	-0.0141838583427729
-0.01029365068409939	-0.0926965445968909	-0.02785906975718283	-0.004976682718554895
0.007968110844983814	-0.05820100308683158	-0.01466543143262968	0.004418763309888964
0.01262554561840033	0.0345393235089454	-0.00415856675462341	0.004102436876163969
0.007837736400733613	0.0975416313742023	-0.002311404725628134	0.009062884866876845
0.0007554001886750152	0.07051836007366778	-0.004229824688934857	0.007338664382537248
-0.01158262141491865	0.02094854801728734	0.01162571212768384	0.01363285764897922
-0.008594496762415815	-0.02069526552339494	0.01444385272239153	0.009881429918838482
-0.008414375379243937	-0.05677282131162	0.009763262271870798	0.005364235939985503
-0.004424575923543887	-0.04092942892648804	0.02571166019106255	0.01204300773559245
-0.001559435033306244	-0.03671045794749608	0.01968256910906844	-0.004097721369314764
0.01626794947765843	-0.009118021620060892	0.0138961776239333	-0.01300963277947028
0.007272486860146181	-0.005785115112338054	0.004900217937077143	-0.01892904287427731
0.002940939051797966	0.005414919056840288	-0.01570598252399524	-0.02081820613163583
-0.01484703896709489	-0.006976314269066713	-0.01311937114822254	-0.02443483045157223
-0.01112433687558596	-0.04799696722849554	0.000100132107415366	-0.01338107431566287
-0.001313192849278826	-0.04804077235604682	-0.007852293063942754	-0.006933160556022269
-0.006937216510930321	-0.03627910548649267	-0.001260654380416241	-0.001883469849149429
-0.01827180385992087	-0.004631922745009845	0.01049509532018674	0.01405587821014969
-0.004881051223695727	0.01706093375122746	-0.004831522328607063	0.01177987888366249
0.006165263841714696	0.02770947454451284	-0.01052162541233912	0.01214198283624997
0.01038750106758168	0.03768974028201942	-0.009109485015733946	0.01169274638115172
0.00395621740833484	0.01308557838980509	-0.0008670942330173943	0.008383858790854808
0.004282560214287134	-0.0009740878223496145	-0.002855343844178382	0.004232025968096288
0.007130740165015974	-0.001045760088861447	-0.006910898310015064	-0.0003421774481431061
0.01136169360753605	-0.01118997471030808	-0.00358045613457085	-0.003176585835101191
0.02140687864332517	0.01540591984754976	-0.004731186151235936	-0.001064064957886569
0.02060982752484793	0.0427102263855882	0.006378120933049976	0.002517107139439992
0.006160990670751919	0.04942328473335009	0.004919848483853815	-0.00188593918045575
-0.007308079351094528	0.05370625760820897	-0.003342063043924529	-0.009768222932483354
-0.009728189877048635	0.0606476501627017	-0.003285337939073712	-0.01230528618951383
-0.01251049180235607	0.032271137352879	-0.0008257158789059916	-0.009449666823834262
-0.01813153466466585	-0.01400010795109566	-0.002174560905889419	-0.01430098941063682
-0.01153941460146377	-0.02710259006787358	0.01053013583312002	-0.005113339042020975
-0.003074391332133256	-0.02735610812399054	-0.005072040757514196	-0.002755945652423307
0.002439733083786448	-0.0305488524237422	-0.01081916366571264	-0.01258249892367294
0.01687976983040578	-0.02873162496148238	0.001025968268831614	-0.003693943013241413
0.004331887137064885	-0.03887781234477855	-0.005285649719431496	0.007315356313413786
-0.005086465705815232	-0.01905995952257894	0.004897591749270533	0.008323268927860932
0.01336542188977788	0.03520900016016793	0.007527630184614223	0.01171490064865774
0.007434179649565427	0.02545222484313617	0.01040942477306411	0.01724659986913253
0.01077962701945192	0.02456585359326683	-0.009250838092125362	0.01754811390130467
0.0126354728652578	0.03475264060163095	-0.02015177817641491	0.007559393899715556
0.01869291631965701	0.03778359101450945	0.01549530968443353	-0.01544348720779429
0.0172374042567944	0.0375041976883413	0.0580826750023361	-0.01611263536391971
0.01285189245993714	0.01483289681308266	0.06666455914206891	-0.005600451980818308
0.002272576738895563	-0.01805239729910341	0.01868730806269449	0.01133482199680777
-0.004712486694378589	-0.0411149755815638	-0.01211860874204114	0.005162242261978714
-0.005293038210681907	-0.0352235952820348	0.001053058398167984	-0.006728008573499129
-0.03514501542009018	-0.04444799398632759	-0.000588994594986482	-0.009362385188424102
-0.0331893983603878	-0.05348874738562926	0.005016924144479265	0.003296499425959828
-0.01859975324823477	-0.02833119080197665	-0.002013171772945715	0.006139230998006958
-0.008227360979295566	-0.04584978651597297	-0.002205366981124586	-0.0001144144273495225
-0.008668165071491124	-0.05559861717282875	-0.005752116140378864	-0.0004363249730382291
0.01087295663126008	-0.01860186246607301	-0.007534604697541342	-0.008053599788770396
0.02152839096805142	0.1605560476997001	-0.005606988720354073	-0.005111610665102419
0.01889986195291757	0.1326042520498803	0.0001953962172595117	-0.009424674158361599
0.008854350837278821	0.05535384529053952	0.008384981238497272	-0.0004419305399135504
-0.008179047462344028	-0.0331298548913546	0.009669759707330056	0.007294815157186335
-0.01814323051116217	-0.07705743750416784	-0.007767794230157916	-0.0001544701866302855
-0.02080295898838943	-0.0409844680744758	-0.002950379827834272	-0.004388216837275491
-0.01328717770203162	-0.03686689342306777	0.009066603425150747	0.01608433679730522
-0.002480935386562797	-0.0007948827588912185	-0.004142551448788473	0.01280765461194645
0.01284363395036478	0.009989505539739414	-0.01123121393934858	-0.0004909338102033371
0.01306722593559756	-3.926296671246356e-05	-0.02480981956435627	0.00171562067060068
0.01340966949614279	0.005400325807094137	-0.0109350570646852	-0.002252734794933437
0.009322724720657418	0.01822933532507036	-0.01248863759083135	0.00135277019538723
0.01433357972591354	-0.01897592769115957	-0.01213074802947402	0.002740005928566412
0.01446195803407784	-0.01361922053315601	-0.01978106933262359	-0.004034013555222396
0.008360375706833323	-0.01365434721758628	-0.0117469530220728	0.002527049652223514
0.01119859303355802	-0.0182749276924312	-0.003495930552034231	0.009293222349794824
0.01371271734914606	-0.006143902008796661	-0.0006633990293891545	0.009912437693076951
0.01221176752819087	0.01971898963654361	-0.01526539121275829	0.007633047793274412
-1.052291535296259e-05	-0.01568183928019523	-0.01364857786764099	0.002559078966590007
0.003422209682434548	0.011426803125547	0.004371438574032749	0.005429082712334591
-0.002099466878481117	0.03625045619338665	0.0128475760699673	0.009245830720821253
-0.02672544585958575	0.02425201153711759	0.007726428154615772	0.003747695360408339
-0.03154486539748982	0.002896136113304444	-0.0005305626605497702	0.002542694273182846
-0.03685734781783644	-0.007310658591617654	-0.007339481831922313	-0.004288583830941079
-0.02874759847893855	-0.01596045383699303	0.002391068572945725	0.004338680385029423
-0.0136980639151543	-0.0004006922718450862	0.008937611855727712	0.002960633433037028
0.004520458152770274	0.01894496906158728	0.0004579451951176818	-0.004231263998965618
0.007128045878690233	0.03034238006926829	-0.007014339344662467	-0.009156624550828571
0.01375820619700512	0.05220128297274124	-0.003365318576484106	-0.0008648622274667239
-0.002213933962761617	0.02035399237540252	0.001263801413314882	0.0001643833164114469
-0.006668368300113164	-0.01645940776486243	0.005893625249392912	-0.003368297582531516
0.0001377151354625799	-0.01595977933973559	-0.007049978407391557	-0.006704181837896463
0.01447465961867469	-0.03614512592372723	-0.02029523516685095	-0.01435819542904442
0.02343382851345513	-0.0236789616968138	-0.019432880104123	-0.006945349903168217
0.02017511368309206	-0.01675125794716872	-0.008517770048071572	-0.003671910937547996
0.009940604827147566	0.00445024727084954	0.008851423483967129	0.002294102559611359
0.002255361964003974	0.01462623404420371	0.009731706025063474	-4.565198287756527e-05
-0.02159460816442647	-0.003182545785659285	0.01208377905641368	-0.0006126573913509047
-0.02016398717842191	-0.02224647790983138	0.02270592814216275	0.002884123988895564
-0.0184407108105869	-0.0134525889254447	0.01508465985028463	0.00559519005965029
-0.02648787423828672	0.02569832027255865	0.01182554161031025	0.002161052958996341
-0.0220139147158635	0.02944713090123385	0.004205998860308213	-0.01189950743327102
-0.004618121772883065	0.04679492232591945	0.0120347395548955	-0.005279780785515255
0.008427594077935979	0.03244695073538831	0.01199893452162584	0.003053345654427368
0.0009554114433033265	-0.01247102176239562	0.01037842518932162	-0.003594591763724447
0.008354861636524541	-0.01730137589065059	0.007581895605324154	-0.01103518579882405
0.008425286562021799	-0.03340879776731231	-0.01232912913803398	-0.01219484430420061
0.01060004098120149	-0.08458090436305808	-0.01262344575313595	-0.003783975267971057
0.006259971166539298	-0.1247580546196303	0.001294427370163881	0.01137965444738153
0.01671979204887774	-0.08065669186471192	-0.01053224629849997	0.0104400328471817
0.02667337780984507	-0.02892442283849746	-0.001845568050069503	-0.0008632753942405038
0.01728273601698665	-0.03675680649999568	0.004557855852150704	0.004593278351623775
0.01194064088089925	-0.04056764369090139	0.01176289811849059	0.0009798169241154475
0.0109524577555492	0.03171754624608575	0.01125016009263695	0.003352561133101347
-0.001723486829588883	0.08467984268559975	0.002980182245201206	0.007558039966809499
-0.01379419137192631	0.0860172582769672	-0.01460416654539522	0.01043221391099871
-0.02443391577601254	0.05858191468642602	-0.01518037976362022	0.002831309788660727
-0.02809382339782851	0.05849875652598092	0.002289442733078574	0.003090298558005451
-0.03138798900310632	0.04868982686508851	-0.003886964053745117	0.0004301729370615898
-0.03789394413933366	0.008523314036973246	0.003499729959128356	-0.009947474343195454
-0.0273503892990713	-4.299364792910369e-05	0.008966886681512002	-0.007405365070961807
-0.008887525966116094	0.001527959794727126	-0.001532646200053222	0.0007975593812610874
0.0006362809241114536	0.008198597941474333	-0.005576963244666462	-0.002928838958220663
0.005446159344763652	0.03344661526922627	-0.01541820812254949	-0.00822814611625085
0.001654502881861108	0.02419364919285316	-0.01690103437262695	-0.009174965724379336
0.02387830147818306	-0.03000577055505551	-0.000124461795982766	-0.004268903821850669
0.03405906189632661	-0.06491377007644246	0.00170068599991249	0.008649572253827575
0.03870109335679539	-0.04667862158087183	0.008835672528013984	0.01510996829842591
0.04411008148610127	0.003492638248315821	0.001041034199980943	0.008520943689398722
0.03261800188845967	0.03724488680327619	-0.007432899364062268	0.006630194631429695
0.00875601747635949	0.04518037969445791	-0.003940725728158244	-0.0007784163266791816
0.001733775641948174	0.02047194730798314	-0.006917202807060353	-0.002013650589490513
-0.01440253342088291	0.02379993762891703	-0.01153086469922597	0.001808657052425339
-0.02931024019728468	0.01500147419021267	-0.02991395175868829	0.0107606787195049
-0.03316788818656471	-0.003264351714709012	0.007781689339186942	0.003077711734124456
-0.02138926907793596	-0.005868483405063483	0.02349800196287568	0.005945302184179764
-0.01018433439197162	-0.01561102934213898	0.0217667114453727	-0.0248775656075514
-0.006518931940577892	-0.01516404550076921	0.02485845297724555	-0.02633928084852431
-0.00105800489351338	-0.03465586196247406	0.01377031709909322	-0.01930003443152115
0.002437433573587661	0.01255651603813398	0.01302165259101188	-0.009231047396565632
0.001564043062103448	0.04132247489317246	0.01928316970729388	0.0008886891869831769
0.0100546566316316	0.04188264948638311	0.01235054324743869	0.005797097887801258
0.02155656717754531	0.01128434460790208	0.008554454649120665	0.006204402503742612
0.01706629630004923	-0.02064002336505692	-0.003672519794734254	0.01161918678407299
0.02225068345092269	-0.01098048248714757	-0.01095880368371747	0.008173312878423669
0.02579008371351905	0.01319827987231306	-0.003979934279134576	0.0008720686136017593
0.01394405839595645	-0.005196341543843852	0.007587187176723961	0.007440893901560651
0.008135213566363224	-0.01694250544929345	0.008735480966334412	-0.0008299720863471429
-0.006708523299940481	-0.02542354453977666	-0.000453222426823279	-0.002738484823075387
-0.007480074915808512	-0.02038419605669986	0.01561007179193319	-0.001743895878525382
-0.01474121489714199	0.002406253727073928	0.01376571869380341	-0.003476672749334297
-0.02034180459299376	-0.04557047723464375	-0.009306201354662957	-0.01664117147329748
-0.01957842374258005	-0.0713134036316546	-0.01933105601478229	-0.009716994628841326
-0.01303739983888986	-0.06138157199285432	-0.01889585295222239	-0.008528523285885858
-0.006701174297533728	-0.04451399980023446	-0.02261920692050072	-0.005451682980919042
-0.0002302490722385657	-0.03594559175019398	-0.008049917479075774	0.00195619896018215
0.004786386101763704	-0.03167699002728791	-0.01395759497557995	0.008449982474730189
0.004316381494930482	-0.02867898457468008	-0.01578668194226031	0.01124708019386741
0.001444101451645764	-0.0147935423019458	-0.01433402418735822	0.009977689712141457
0.004621302749815911	0.02701359530071604	0.004571805896565011	0.01079439005486957
0.01003604171424998	0.0362311191066897	0.008876893793952864	0.01471015298337055
0.02157007662981211	0.03534423237003838	-0.001292734067291566	0.01123042092842813
0.03620908705127793	0.05596657803308375	-0.001006921054229007	0.01020451505785767
0.03632727763160375	0.07056934087054977	0.001632294732690424	0.008747399916647866
-4.722016746155726e-05	0.03094553844550493	0.002607733820890868	0.005891396466237582
-0.01206670364463823	0.03774298155382942	-0.006955242148543041	0.004085046440836343
-0.008350438857660448	0.03815801053381937	-0.009850023230360929	0.009598123179555192
-0.009965492533386357	0.02365374836277546	-0.02159809526645098	-0.01229920859089693
-0.02331133986789834	0.01405466746227262	-0.01677782867407575	-0.01505460930485315
-0.00758390123345364	0.08816894827300591	-0.01517108512198454	-0.01308266959493971
-0.005870427234205385	0.01910115111978029	-0.02351889651692522	-0.01056027361841449
-0.03099442602100007	-0.01960651974525453	-0.02165291587465273	-0.01742462245826304
-0.02906263557242616	-0.0329861606165244	-0.001838834956500304	0.006874682994490493
-0.0248825554973406	-0.03276602656312898	0.01452708691574016	-0.0002391993548013962
-0.00901520462307623	-0.02986268353786116	0.01075164405375822	-0.0002662955472013889
-0.01173163356292629	-0.02577505480799787	0.007060585161031798	-0.001071623090440042
-0.003707534589529788	-0.03233812867167592	0.01995435723931553	0.0007479120795518934
-0.001563600171193409	-0.04694431987316724	0.02292190115716735	0.0004754124962585412
0.002304637526488858	-0.0541445468103481	0.01662674224639406	0.007536502580075477
0.006688816892110954	-0.06552041897806009	0.0257122786946656	0.01000786199301773
0.01418514619926507	-0.05939922766859435	0.003040665807198762	0.002460142093103355
0.02042078914096011	-0.05084825659666763	0.005347400929601633	0.0013372935481913
0.03469435882019042	0.03154359921129285	0.009442681931965314	-0.001372517743974
0.01890779398187395	0.04012956643057677	0.004153929450562209	-0.008005235647824746
0.01951441322793914	0.05841984261925632	-0.005368816797887328	-0.005310918865783259
0.02112756472183279	0.09850884814534393	-0.0096573835221098	-0.01533866647311039
0.0007237981269298115	0.08619890631687153	-0.006809651141143604	-0.01413977761068637
-0.01981449408415713	0.0402750481550672	-0.00682600477202672	-0.008526966384843893
-0.02005562512216624	0.02846180329091744	-0.007573824212060111	0.003843932084333952
-0.01276258140598457	0.0170285724928029	0.008176214758503478	-0.003370432307100322
-0.01329813655002658	-0.008273336598037809	0.01488585955786469	-0.01038002035573778
-0.003018550335028853	-0.03469835694283514	0.01235628109049958	-0.0101947308057333
0.008578442373333198	-0.04174253606887821	-0.004791915956898356	0.01886129542867993
0.001893330824060149	-0.02707392511970915	0.01455646868999377	-0.002884613371652887
-0.002219749385094277	-0.03085942053184497	0.02043531859762627	0.0009093785280024695
0.001428079547517415	-0.03028958973762747	0.01870767311764842	0.007496304939089512
0.005693885981994829	-0.03543822269398822	0.005321245329205914	0.005822861426303747
0.01850925720203419	-0.03781655998470244	-0.002243118593053809	0.004750666723042639
0.02215707058847209	0.01853558961525549	-0.007249219682918338	-0.001722362831478856
0.01803059495394812	0.07680942554340175	-0.01586260172291517	-0.005141852921970577
0.01726910110625228	0.08728691009432483	-0.01151317575337243	0.001379190914931508
0.006832363779315872	0.07272102125844686	-0.004878854268311392	0.008541373955172038
0.003981431418853832	0.03035890944672996	-0.007320225151044802	0.01325840183487341
-0.01004467831812513	0.00315371767906044	-0.005841387069543096	-0.004855172421281134
-0.0321237312640044	-0.05253251238218624	-0.006194543815410186	-0.002614531636261706
-0.04120714645032775	-0.1149718905420765	-0.009026673855968592	-0.0002326518744625804
-0.04927257538579512	-0.107276568663384	-0.0123203694719607	-0.005311922399732069
-0.01902520196207511	-0.0334873476443335	0.001220200695994376	0.003955366248072955
-0.004646443772085945	-0.0004460295619623251	-0.009586899472403919	0.008707783977381922
-0.008422503169212022	-0.03215175522183184	0.0003869020356893734	0.003981798677671132
-0.003852352412369362	-0.03640824575946709	0.01765232107788637	-0.005381590827433237
0.0001034291015076875	-0.02922469570624422	-0.001259734254573647	-0.0006523559198268321
0.006468494291116561	-0.01017962233424064	0.01331656920900659	0.009202976494194824
0.001297858088137947	-0.00298253310859604	0.01288900955847469	0.006991485095908909
0.01478121311237016	0.02690569094857278	-0.001750379531073855	0.001811665364398042
0.01352227200850391	0.0449588531536444	-0.01240682639677593	0.009530058046051658
-0.003062526277157094	0.06506323099703316	-0.007850796221770529	0.008537659006186162
0.006127687765875142	0.09624545258167173	-0.0009491591650846707	0.01157228975243264
0.01065342409536087	0.09710033094251909	0.003928114911378279	0.01507866974133364
-0.000712679913785424	0.04946074847041793	0.008319144070145305	0.01258937430392562
0.002904948693790473	0.01655403179069756	0.004756671157596125	-0.01050980083010028
0.002861484541721027	-0.004733980587477713	-0.004652533520264525	-0.02131150762325967
0.003701730262354975	-0.00510275771076213	-0.0005754445248680134	-0.01259650769681938
-0.002931675205033594	-0.005016114938172151	0.005054258922284717	-0.01136493391750994
-0.00856813765034771	-0.02129535716420296	0.008757662895555796	-0.005693785615658492
-0.00871486013707448	-0.03235059782740087	0.01411428050095053	0.0006311123512454459
-0.01168571486635661	-0.02522281194654181	0.0117019204979072	0.009624895592273348
0.001267738818180696	-0.0286871127600475	0.002784947112821488	0.01379697019925928
-0.007587938009174562	-0.06207744822314708	0.001265560717188031	0.006711447785340066
-0.0008208413972462826	-0.04873147767207742	0.009295606043874281	0.001893221150852641
0.001011451185475439	-0.01674707833632647	0.008308104759243002	-0.001728591799535391
-0.005783183002004903	0.01221711807349891	-0.02298996851378069	-0.01073274260412493
0.0002555529631592035	0.0454196443769382	-0.0233980821559234	-0.007383388246203795
0.007851578167818014	0.05456153317989876	-0.03741628114045535	0.0008962024921247369
0.008858665305520468	0.02939873276800864	-0.01544115982019956	0.002347504563556447
0.002092290197575966	0.01588194848386264	-0.01228067227043413	-0.002753837655110391
-0.006669816303618496	0.00104193676074577	-0.01489698685168316	-0.009425482370341076
-0.01206455351286651	-0.02814277386834166	0.002866681507276821	0.001205161005254871
-0.006392015455402085	-0.02869921632961251	-0.001032027483675472	-0.004277617532670719
0.004645231656835305	-0.01545334974260417	-0.01088930537324353	-0.005902563187252462
0.0004291727733844875	0.0008131353111812466	-0.00804443655816281	-0.005478347715241139
-0.00392713685466649	0.01799677160857699	0.005195732518911937	-0.002418073986847413
-0.006503038121390112	0.002173903488791461	0.01179119230094149	-0.001264769185156988
-0.0009744000417147817	-0.02586968281327743	0.02156844607711413	0.01130096406253294
0.006352748718277772	-0.02172457652218495	0.01358030652494601	0.01416957387938258
0.0109585016802576	-0.02463254442403629	0.02521656988842345	0.02049034792476783
0.0139035076606366	-0.02445309641416197	0.02331849101055224	0.00766664813780442
0.02075034506762453	-0.008285996130807553	0.008428192959353233	-0.004835626401882494
0.01819429034578689	0.02306667561812773	0.01097453379721926	-0.005999270096786261
0.01291123441539874	0.04717041403464323	0.01555931235772232	0.01464373770404276
0.01626052246449967	0.04919552748345107	-0.001341918942230573	0.02344602408850007
0.0191415761695726	0.04831839310156313	-0.01769078706603345	0.01838506330498006
0.01439348452780019	0.02671140972683146	-0.04362162921006765	0.008164439707219166
0.003910318699047784	-0.007583412266376661	-0.03625247269792083	-0.01179444038306098
0.0001196468961828225	-0.03633189181324342	0.00263716557216869	-0.04356372811715163
-0.009433175109394936	-0.05769743019137451	-0.004562368451477538	-0.03934468179225217
-0.02156697272455368	-0.07110454360981147	-0.009629450842628673	-0.02896826696599818
-0.02326007924442833	-0.06327081052130279	0.003856619435866571	-0.00127830865963099
-0.01464619530156396	-0.02615650505007022	0.003718953401122383	-0.004937381130139914
-6.541712351867955e-05	0.01012378488157569	0.009133069712222049	0.001996317822896599
-0.001218432801973939	0.01054574802844257	0.0114892313712402	0.01177609104386181
-0.0110075890955514	0.003298449468361659	0.01674081607872633	-0.002199867229142073
-0.004574605529470715	0.002367187962757874	0.007355392512763759	-0.006700859296691569
0.01074971565540916	0.002385260062007119	0.0106868423322698	0.001193584855537782
0.01754748815462202	0.01265057617053927	0.003269996769377214	-0.004340732919945577
0.01594605465182921	0.03958650702991363	0.004536298009685366	-0.0001895933122237673
0.008426046242047637	0.01509275147747683	0.003548184922876765	0.0004840890834961308
0.0006943683136296511	0.00110843301812353	0.003207748544910464	-0.007397629321699822
-0.003052867240731764	0.004829908890536539	0.002184982229677404	-0.007826034017772949
0.0006616939842698991	0.01326453746177002	-0.00787359876070697	-0.008526006840530927
0.00159810756706193	0.04706848267433499	0.001214573291803105	-0.004235737150628865
-0.01710554223368521	0.009099645751706168	0.03663172342721273	-0.005501583479590652
-0.02687999688780894	-0.05315322513639868	0.01030170963331276	-0.01536585286749074
-0.02562288601896698	-0.08427083098793477	-0.01443804953206694	-0.01135210480602971
-0.01704508619114116	-0.07047090373059267	-0.02821722484168153	-0.004712747682003252
-0.009504963435062267	-0.02798503424624095	-0.01746306480838249	0.002681495718319953
-0.009303844305389667	-0.00622405583468272	-0.01575339546894613	0.004961072551950977
-0.002091481477955511	-0.006874829025003674	-0.007669543266051597	0.008596938394599065
0.01456904195720988	0.05109678853000931	-0.005620444523793057	0.008361078258666837
0.01939656478001317	0.07955872959285844	-0.001538059578750691	0.01830668316143903
0.01464460657965631	0.0888310692853202	0.01129442002232386	0.01134427225213713
0.01516654613781274	0.06753627285193527	-0.005299914383449746	-0.003613260333679281
0.008211090835118513	0.04584470022509619	0.00501187659828412	-0.00109469103562595
0.01694928119949297	0.06546520211833098	0.009316739272790088	0.006379502323955163
0.02291715007739689	0.05233116851664946	-0.01007907617566484	0.004682464188899262
0.01849633850673726	0.03945499703778453	-0.009775771122714882	0.009071299646799053
0.01140381564557973	0.005239627394924812	-0.006774124001334649	0.001240251794704278
0.006931657322527783	0.008021903419248027	0.009738895623585033	0.004628213133715
0.005747266201195715	-0.004475549637634538	0.007836036596467595	0.003970118393822893
-0.006562500380965242	-0.01003908494864508	-0.005898954724100279	-0.0002635177718647107
-0.01440147721178347	-0.01152725046928241	0.004345321688250164	-0.005097654088093953
-0.02259635769655972	-0.02711316560381691	-0.007648065441973739	-0.001001634123736137
-0.02729159755668172	-0.06820655916643949	-0.01077014067618794	0.002477760169801685
-0.02664097492367911	-0.07940828564962994	-0.008860008791899838	0.008576410743944907
-0.01905496909158316	-0.04965049031519494	0.00900156475631911	0.004028485601552848
-0.006416978886821934	-0.03236327519713706	0.01665199454783406	0.002413583621619888
0.01393659128635582	0.007990911069775671	0.002937916768824861	0.007722673169444683
0.017668243231154	-0.0004405262743921655	-0.01411583734242831	0.00785357695333345
0.003157768706932321	-0.0007970037148945196	-0.01491164664296698	-0.0002870580642745748
0.008614361264368826	-0.01703132312989166	-0.01187689804041679	0.005720777614673854
0.01971487320593914	-0.01556078845969696	-0.02352052219539329	0.01495282326109445
0.009672528790795058	-0.008830714521768212	0.01876313204568545	0.02003633200316007
0.003847850038101975	0.005429475542563111	0.04149310383671007	-0.0013163141268793
-0.002700348662051414	0.005150166842796968	0.02392355609780443	-0.004270648737386798
0.001050838577404251	-0.01472351379507797	0.002691120100391401	-0.0124706360859275
0.002271907810915014	-0.01203605404724161	-0.008055210165342698	-0.01157732048091314
-0.003088055451330764	0.01054730967942234	-0.02480327757239362	-0.003373922004635185
-0.01338238510723985	0.03102171628194048	-0.02159644365490061	-0.003966698136541822
-0.01911371939481649	0.02868978100504068	-0.01811133490906206	0.001893653965341327
-0.02774203155157795	0.002942805984948713	-0.001765010875477322	0.007286009663638689
-0.02626232578375637	0.001091020744533714	0.01713722521708222	0.01286994471727705
-0.009957961546485632	1.893417206043449e-05	0.03651705397495543	0.01731604671493672
-0.004906478801604643	0.003921801317744577	0.02862052158213058	0.01339013970206167
0.01330916483319732	-0.0119981870064024	0.01869746712414335	0.009387047304771776
0.008421119572177786	-0.006826830211464282	0.01508770899556635	0.001515036129929378
0.02109992518620471	0.001734012864653195	0.004673759151533691	-0.01456745563569581
0.01983792274813181	-0.02341705129090602	-0.006621510398281308	-0.01485419134587404
0.01824577120423182	-0.040632391174936	-0.01388693186115317	-0.0129583359016851
0.02314976599285986	-0.1029334466825753	-0.001896180964500142	-0.005558404995367174
0.02893485706272744	-0.07010705949179408	0.002511793286950665	-0.01096894390351247
0.01149933369486648	0.001641078606239572	0.008977914511918617	0.001425422598520747
0.006271089853250415	0.03088723018254896	0.007465081167898058	-0.001754368534432373
0.007889211449658292	0.02091490120278188	-0.0009894535428483732	-0.01527928789180741
-0.01319722408242677	0.00541756727488145	0.0002089710479350121	-0.008760162538843265
-0.03406381375082595	0.03240433384148736	0.004751502595580053	0.004168351244110927
-0.03523273006630963	0.04388293725161823	-0.01463443476680256	-0.002997774097245269
-0.03472648019530403	0.02718750641941495	-0.03587302264797344	0.0006259361229850518
-0.02501658819143582	0.02895134118488092	-0.03806951112687232	0.01472338711458836
-0.007529995218576663	0.06095466755816662	-0.02624986662056162	0.01783357332491795
-0.002950091176146155	0.07358773471427879	0.00951829908248941	0.0003522389135102556
0.001327627817910551	0.057702024822091	-0.005986867406173988	-0.002661928701895246
0.009812254169916925	0.03839266026075798	-0.01042271105225955	-0.01105356447183023
0.006838660039515331	-0.002570901868367727	-0.0009360732157567559	-0.01173640749695537
0.0015903299040606	-0.02799946040707809	0.01519487182266727	-0.004462146639337469
0.01263176756074968	-0.02683997462399211	0.02477135842637864	0.0005148093785904361
0.01724000880331954	-0.01651842943217582	0.004690495313792968	0.003656724459984518
0.01654451319080248	-0.002953785622046088	-0.0156337784923414	-0.002208198937773766
0.01803844778425873	0.002290302410137278	0.008938191108882783	-0.01312171299435455
0.005481936635536934	-0.007353156362032738	0.01463935436361797	-0.015713396442782
-0.01263068523211136	-0.05742080331616518	0.01102061505079546	-0.009671099772332509
-0.01395250149029901	-0.05494588523804656	0.007559155663877123	0.000510650549825733
-0.01724361482089232	-0.04771387711014231	0.007259397066680992	-0.004496065261162974
-0.02990420274051869	-0.0460709732175149	0.005420962316993715	-0.01185997012371033
-0.02380741085049723	-0.0629804890862969	0.01450150064276753	-0.0002948226108500745
-0.02091163147823089	-0.05950978432890684	0.01156078127775078	0.008528561073961709
-0.01030477947400495	-0.03431155150630311	0.004573260397811005	0.006746340881906388
0.01532560980779679	0.04844346644979754	-0.01440069184837317	-0.0008706449904857406
0.01173273301746623	-0.004567233639960594	-0.01837638974524238	0.003762539501479318
0.01625171729045737	0.02012297729663359	-0.0208575187449178	-0.002421897861034556
0.01888464419086455	0.02324479896956937	-0.007114512797100972	0.004450592979822881
0.01652413357524118	0.02146553851719327	0.01445746885090249	0.01791480073031845
0.01988936215961117	0.02135713004967574	0.01070019967042111	0.01008247368668239
0.01341225771359428	0.04384991530777618	0.003722375061405364	0.0004304179360438738
0.02126703705858465	0.06384924405764027	-0.00277458796024938	-0.008041850758313528
0.01617155687564249	0.05550313292389725	-0.007795446541843924	-0.01300568358937517
0.0102052788848574	0.05426219385611075	-0.01272177299692014	-0.001393817872962133
-0.0023332513218226	0.03567478029632908	-0.02104527847399688	-0.00350663217824397
-0.008337156711673045	-0.006849113189318239	-0.02253747786473564	-0.00753061339576923
0.0002399271607309055	-0.0450697968876086	-0.006354478976773357	-0.003229976113912021
0.007043008234609702	-0.05793222302868162	0.004177588677248079	-0.001179320168717392
-0.006117603879896664	-0.0510756357206248	0.01796665660139976	0.0112556967313894
-0.00785408176134355	-0.0247084353324335	0.01843419045550807	0.0123158695795666
-0.004419745763408442	0.004398658366893749	0.009139585642586819	0.01288952481534641
0.002217796593885331	-0.01269612564689712	0.0001182928282556594	0.0148330141320919
-0.005489493993644906	-0.02854567508601698	0.00244991555704982	0.007253749325718338
-0.004780367991167996	-0.007142487505699044	0.00211683844509489	0.001090799601138839
-0.01156746073776188	0.02639323086500702	-0.004506908708584651	0.002033891269820959
3.358927119305475e-05	0.07001883054968723	-0.004969410440164563	0.00477684313270687
0.01432466785788948	0.08461242338615846	-0.008784330911676873	-0.000102343450161665
0.01702176879932112	0.09627988357032463	-0.002858073651713202	9.740413760269984e-05
0.0102998415173105	0.1002168335913056	0.02313954039191308	-0.0002359772049983566
0.006391874060186648	0.08052843218769967	0.02122278274648981	0.006774786214678843
-0.006298509369400291	0.03175837306043197	0.003453069461679173	-0.008536213049509703
-0.00978827010102091	0.003881902245798212	-0.004370335637351706	-0.01624534867139245
-0.01531924039786887	-0.03844998439928309	-0.01034969367689278	-0.0102659834604745
-0.01730763876192821	-0.04926474143959125	-0.01722791520607359	-0.006524868361738248
-0.02468931679475547	-0.05097986985204685	-0.01249828113933926	-0.00702906009126246
-0.02402029131257579	-0.04701740134812069	-0.01360840713232077	-0.002602489106155752
-0.03247110838682944	-0.06071900652054886	0.00538413766158404	0.01016848856285747
-0.01775250971137457	-0.05330472437897125	0.009091330763954859	0.01589516703173086
-0.01344472481466506	-0.05337849397383333	0.005295132770731089	0.002645887177403352
-0.002280291206697334	-0.06943248641197339	0.008475167502038118	0.006758905650571942
0.004667736144481773	-0.05906771307940255	0.007810711347491072	0.003667318212266598
0.01173386405171976	-0.03873263432848625	0.006098330100984719	-0.001124111659735635
0.01905486123777917	-0.04026135021416544	0.008803689009409954	-0.009209814948227268
0.02940924037115502	-0.04310789457230585	-0.001796897403344934	-0.004157353924783103
0.0220519955188739	-0.02193808196942405	-0.01703415718413916	-0.004406434734448663
0.01628197857277906	0.002416798746958545	-0.02336965583502117	-0.01046965903041586
0.01042103752964403	0.02810142148423878	-0.009678820627317774	0.003466350025510416
0.007942240877919152	0.03955221779073779	0.0224691152605561	-0.001743682201798951
-0.0001164325972723519	0.02809481024529678	0.0159431087022812	-0.009721792753594088
-0.008709851729766353	0.01007272074971024	0.01442580575267707	0.001221498714968345
-0.01706616380247533	-0.01598292108424681	0.008524160448791474	0.0117952819425054
-0.02200859757184115	-0.01828244338305701	-0.002824951613368116	0.006131206416083433
-0.02019295510496625	-0.02496414867446826	0.0017809864801101	0.008343558252189215
-0.01798795946276452	-0.04368268815419676	0.005927781884540664	0.007943392406881345
-0.007430265173676975	-0.04777402546930132	0.007138017253706435	0.006360216144936143
-0.007765979120564135	-0.04630560218729676	-0.0002690083446637708	0.00665319086145344
0.00502344526129582	-0.02912901799235369	-0.003577032651344561	-0.0007904448807139906
0.02747409526409246	0.02318514162230309	-0.01316198615838135	-0.0004593298208931125
0.02651698658849822	0.05323856298558703	-0.006164405090414874	-0.002376871416357349
0.03272056299288898	0.07656433989299084	-0.01228351011740762	-0.002912094209943672
0.01801227830253822	0.074288819505687	-0.003155885871967398	0.00192456366950237
0.01071716528690773	0.0623295721492851	-0.0007940896692617745	-0.002364227609647285
0.007896249277381058	0.05332496152082002	-0.01377375256738109	-0.006341965694821161
0.007630326870128749	0.02044259211604901	-0.004519310444525148	-0.0001362591079174807
-0.002947838739433373	-0.03357290930191639	0.01854447910635881	-0.01001415878355209
-0.007545366107363558	-0.03282751217182425	0.003641389189790917	-0.01938020143384513
-0.01632533371638653	0.003925080813958983	-0.006212954418274603	-0.002318262636398545
-0.02846780379163232	0.02814210147001673	-0.00494276651196564	-0.006859191044922539
-0.0278187186180883	0.06313019110646792	-0.007620357190154217	-0.01722409295283369
-0.02051780632342456	0.04355453078194469	-0.008689045795368364	-0.01308047878131268
-0.01922016996300146	0.02441071260931022	-0.008661235898360436	0.0008273948325427385
-0.006684370218706418	0.006050592259369998	0.004379182654551813	-0.006960321474071677
-0.000768893083613903	-0.01730124678189504	0.001844222743444033	-0.0005309852717411782
0.002031163128785887	-0.02032090575364389	-0.007336072814265935	0.0005425166397230023
0.01085820641914306	0.01707216408264259	0.005816037858393944	0.002547870280768129
0.01358301120056213	0.0291788582890923	0.004928495575594044	0.001255746302128578
0.0148436145968363	0.02041565414829281	-0.005187628263918936	-0.002427366064585888
0.0122701033875885	0.03686261067188631	0.003691771887458286	0.003456051433343041
0.02680053348266543	0.01663847588997632	0.00844746497679741	0.003278333436068937
0.03235275686771397	0.02748561008480307	0.001310777637806893	0.004175715358350071
0.002998164323811422	0.01030523108613325	-0.01178833452941529	0.006974629011918435
-0.009002475457146757	0.01325503930146048	-0.008953505066704035	0.003588976575182488
0.005854760764885719	0.04585638242856885	0.002751678333025725	0.01046779111259234
0.001494733810973717	0.04892685634714633	-0.01007213198936575	0.004834119264443474
-0.008871603948059241	0.02171391854335377	-0.007059550603187105	0.01305872281858774
-0.01771861431066025	-0.001796729882361836	0.009917845408144471	0.01864727013290053
-0.02637789155990701	-0.05529959554270513	-0.004042381023287009	0.005775919613839336
-0.02821803907372702	-0.1019708209457138	-0.01328550446574265	-0.0114774904580056
-0.0150985470680646	-0.07200454969083551	-0.0003116971904825952	-0.00523691859265545
-0.002464373558493038	-0.06409011308582496	0.008511293796091628	0.008659729644573988
-0.002147210358442412	-0.07743733031316627	0.0201987269205374	0.01181305023737789
0.003422027794121636	-0.08053824347358562	0.01490538567808137	0.01360263894626284
0.01171498844432133	-0.07776305811797547	-0.001865469817006149	-0.00133156320719613
0.01802301754904985	-0.06317745537287213	0.002799341911505146	-0.001516438723820848
0.02174360641331784	-0.03343602934712209	0.005564918683865979	0.0002395803624468283
0.03468027574775269	0.002863619619396738	-8.636793401221873e-05	0.004828654273687353
0.02040800309253619	0.006097756390472896	0.01631046352402271	0.004203786718211036
0.01976138186456818	0.01158640718616017	0.005935178060298299	-0.005675955572816396
0.01891476438497949	0.04426347157586959	-0.0061952158317365	-0.0008213199907244181
0.009909346209904616	0.07012349467244484	-0.01017276685176989	0.003744007506900895
-0.0004636615311810934	0.07678315108746735	-0.001365993102852794	0.002908491198369528
-0.03215587922892015	0.05784195321970878	0.007699735507628079	0.003312760625357136
-0.02808570654650552	0.04258673799013783	-0.002163833388581088	0.002408848281931593
-0.01977110429634421	0.02985772502446147	-0.00883899407969896	-0.00881166754429726
-0.01613353770584391	0.03276241880406966	-0.004356241181327916	-0.01066443772496773
-0.006478396196602959	0.01961004395076622	-0.002604001381082115	-0.004115543276124916
-0.0003027967380128397	0.005873366790543123	-0.0008568864652459349	-0.001628752207811892
-0.001638259070967528	-0.008664042143197399	-0.004938870102182203	0.001072862719771728
-0.003591448053996024	-0.003814931351158647	-0.008221265073054566	-0.003512246824850275
-0.001462941257926566	-0.0209100613441891	-0.01267550502509043	-0.007572277622455977
0.002797848240668729	-0.02752636641286719	0.01063243810001108	-0.002295219062676997
0.006126199430564815	-0.01885417152503962	0.01496541374848638	-0.005009736713805416
0.01627441470351394	-0.009250931567712979	0.01841234424999128	-0.009381861465592606
0.006480160949610144	-0.003823728430860297	0.005949402623124021	-0.002024720210580918
0.006814018593509832	0.01366361218485742	0.005875490730950502	0.002963575451135694
0.004120625459957868	0.02613325082711115	0.003695907288350812	-7.610427294263926e-05
0.005965331093186985	0.0139815493341691	-0.01306534837618327	-0.008290828448317075
0.000370712848294624	-0.01452721606453655	-0.01579069788355431	-0.00786536954649936
-0.02435146492144202	-0.09045374825697863	-0.01729597095778245	-0.009197274705752467
-0.02974348115124501	-0.1085187679887298	-0.01558857759448454	-0.01532036530959603
-0.01612754240395806	-0.07968798944215803	-0.005000555914283971	-0.02482668693979309
0.00266797215996252	-0.09436315937830926	0.006119759257699927	-0.008482912233741809
-0.004253182966370288	-0.1519329460741392	0.010369061121335	0.009556190584329124
-0.004532162988749669	-0.1095196764676405	0.009528439607178994	0.007930571660618783
0.01455576135937617	0.01083540751318557	0.0176041525578347	0.01076237148420805
0.02260139799499738	0.1319751766168623	0.02818039681960197	0.01522672066591961
0.01564844936970037	0.1877915054738125	0.01028890794262559	-0.0003809372529124676
0.00206958785042701	0.1591831390381439	0.001682724926575063	0.01234508217588995
0.003402107603944422	0.1296858311288598	-0.01472772186656607	0.0138820144950055
0.01016643757301378	0.1019438665429247	-0.02136826988462581	0.01424467583623346
0.01141462088731328	0.02385027051918916	-0.005800690041404434	0.003859128692254625
0.005489581232617834	-0.05810279755535983	0.04258569630095443	-0.009862255640021059
0.0003341171279179334	-0.09037716552648871	0.0529649271888112	0.0153144921366628
-0.0007739969474789989	-0.0744721446489021	0.01624087634242748	0.01596059441796884
-0.01709018019904875	-0.05443073925732951	-0.004199363119883135	0.007452274793353234
-0.02079383601978373	-0.03860001955189135	-0.02187912691689558	-0.003330776770497386
-0.01808725618075016	0.02619120320376555	-0.01949957255735537	-0.01161872870348433
-0.01930251353332278	0.04009167275288427	-0.002503600464798251	-0.006597488430054033
-0.01932991270887617	0.03515024701407113	-0.02747198198509939	-0.01101286269180791
-0.01708473474399613	0.02311201369234368	-0.02873063137179626	-0.01508146956469728
-0.009571188345499299	0.009139084230544247	-0.01527559350048445	-0.005552052757550549
-0.01275497710140165	-0.02988583369860804	-0.009978784596590977	5.850026494584154e-05
-0.003221337412646056	-0.02045462316921471	0.0005727439337866956	0.009622982482133972
0.006762411414717906	0.0172773331285889	0.009811809760039241	0.01589945705503339
0.01022077017080896	0.04054271584289247	0.01474528947607508	0.01445468005571714
0.01220439523815926	0.05172173654798985	0.01044468694290214	0.009096936421508734
0.01987416288476636	0.03301224528255906	0.0148418693167633	-0.001936625795982189
0.02146167734197248	0.009754223996717959	0.01183569490311564	-0.00616361291223074
0.02313970378147776	-0.007866521403364649	0.009346508517479866	-0.006949746055824815
0.01158769787020545	-0.01271014469696007	-0.006828778732079438	-0.006531329026728545
0.001876042743571598	-0.02245287566062356	-0.01410090307525823	-0.008987224387866125
-0.005247225999068816	-0.03186493781195581	-0.01083634547817087	-0.005096122287908136
-0.02622363672823325	-0.0321026861704029	-0.003639397840906426	-0.004277344300291072
-0.021189857697878	0.003687878173893327	-0.008908636924509553	-0.007480704217416799
-0.02228144598859847	0.01371341399510776	-0.008918705390549909	-0.006900592513878125
-0.01783517865674093	0.02169628879751969	0.0005324275195227872	0.002131038597913927
-0.008848425357967243	0.01304457233522886	0.0005185971056383846	0.009495089356703621
-0.00526900444055278	0.005848860649475756	0.01281662086248668	0.001898140792239414
0.005906647753182168	-0.007817844741562906	-0.003098237503600077	0.002712185762591761
0.01543836710117344	-0.009041611843141627	-0.01531332689350704	0.005036083633416643
0.01996704815724268	-0.01233222836150977	-0.01236116287993258	0.0121893713701168
0.02126025891334733	-0.02779799038359868	-0.002804797306938175	-0.002913628664567214
0.02012872437110549	-0.008789558514671411	0.006882598132082427	-0.003845048608353027
0.02089026439586331	0.02873188195703068	0.006189500758617618	0.009584191078954885
0.02110900527611018	0.03830923225489336	0.006259587539379517	0.009519107689912513
0.01550644079717948	0.0390776914586317	0.006318709525780589	-0.0005819269773613311
0.01862109271814836	0.02773257861592072	-0.007605010037857454	-0.01502139156728792
0.003265488949092085	-0.004274297246467977	-0.0100238780431978	-0.01375491103093898
-0.01131553658708359	-0.0277145914805152	-0.004730119188230061	-0.007562737256028252
-0.02753468585322009	-0.05908091893203436	-0.005160152346311024	0.01880942756947298
-0.0328670618979728	-0.07068355082718789	-0.007634175544426371	0.018688800404922
-0.03526331548491651	-0.06932777542124176	-0.01373328953564811	0.01072877634209639
-0.02681999941883767	-0.05506580264788408	-0.006509133921208821	0.007364193842422319
-0.008447363725430843	-0.02954570544466167	-0.003061383670730635	-0.01728168785214049
0.01287598529230538	0.002090637443397741	0.007590346925999234	-0.01421964888557767
0.01259610721489697	0.01690462367248436	-0.007591607964101976	-0.01880672057395138
0.02347815441372209	0.0326751991310423	-0.009575485202053188	-0.009932245298402734
0.01307598306368071	0.06974603907785819	0.002055636134629731	0.007509399096805088
0.01440868304914435	0.05339606589968834	0.02902085165422587	0.01184723396905134
0.008171052359043819	0.04837458827516228	0.01757801266310792	0.003882691173636338
0.007940986276005629	0.03525828962423311	0.005307879422982137	-0.002959945934339086
0.002287402515370764	0.01239378321441476	-0.001752077755438685	-0.006727160926935859
0.0007390467940259686	0.01227661132970875	-0.001226327746772495	-0.002494355027084302
0.007570858040208444	0.02190124235534302	0.007264402430891306	0.003302408932730239
0.008037129246646874	-0.0005524039088897228	-0.005578360110401708	0.003659255564127192
-0.001958386380413851	-0.06814412777385886	-0.009440524881319259	-0.0004044001905564707
-0.01710511284077288	-0.1060192870045092	0.007188565775952335	-0.003322810185920732
-0.01997135854024069	-0.09615607333185869	0.02768094736603086	-0.02327547697260561
-0.005724218510716373	-0.06774893702729075	-0.006682799696958144	-0.02108098704113544
0.01401729787681502	-0.05328528591920382	-0.0307274251787163	-0.02033966005256
0.01342529393140884	-0.04946623814892372	-0.02901981513934275	-0.01477561850156651
0.006773131630226402	-0.03216420043099014	-0.003366158229194057	0.002071242130993026
0.009714118672348684	-0.01210240558164642	0.009468570344341702	0.01396293656411367
0.01985364640574641	0.04604570838126156	0.02361583172115564	0.01952051534035822
0.01996292188257028	0.101485408317909	0.03070808708133838	0.01898434448047785
0.007613901229583486	0.1058778095085082	0.0255535287401891	0.01276752969436788
0.01143735828423985	0.1144460022816796	0.01144536526147511	0.005436787183426471
0.005424180830124214	0.07262891285085235	-0.01011076290609216	-0.0009711082164977006
-0.004631402578204404	0.0325026096857801	-0.007926775615429758	0.0008328565320944991
-0.003913439629757876	0.008949936700105009	-0.000759938232730396	-0.0005061090840329916
-0.02352642792210168	-0.05324537795906397	-0.008671268991681656	-0.006933500464828032
-0.02004599945618952	-0.06568307441934006	-0.005911492579528371	-0.003859160246399549
-0.03614007886392154	-0.05368620717397098	-0.01495604063892465	0.0004185631599776108
-0.03202476527701234	-0.03543220116741765	-0.002972709366156059	0.00251224697519321
-0.02010624650282408	-0.007854170930915051	-0.002583419583118333	-0.006675108940771093
-0.01324784157304242	0.03839041358724167	0.0002241296484090463	0.006843597058881857
-0.0122615643543743	0.06566878304462109	0.007242287807067629	0.00258747780712066
-0.004772378499323124	0.05306182059789553	0.001458019390187993	0.002461337889200928
-0.007930025666538436	-0.005274616905712945	-0.006023549811096343	0.001186959563529838
-0.002465144714084606	-0.01005899240995353	-0.007171081824773046	0.004654740108231806
0.01777648414732814	0.02945892126359828	0.01130636953679043	0.008913461767384964
0.01539753395670778	0.01353633761247443	0.013138998490242	0.01500121724189276
0.01850607835635302	0.01819842816150489	0.008477596232341789	-0.0005669838878285366
0.021168250140313	0.04282514473706387	-0.01274525558776505	-0.01145499494373375
0.02234376870081824	0.05431151417972097	-0.02205551522343786	-0.01264572572041829
0.0102280463731785	0.07106881740919717	-0.0279024823366626	-0.009957170134841351
0.01106476222671835	0.06502119385874225	-0.01704210388481376	0.002698397797771455
0.01255151259226448	0.03652984813529654	-0.006805196821409207	0.00585103575320914
-0.01333771744118093	0.02359679872071677	0.008326052572142688	0.008109438862639051
-0.02624680279377278	-0.01894851228242247	0.01693147086101185	0.003875660937820762
-0.02469297748362665	-0.02241574530678152	0.01468893759752326	-0.001603785436629958
-0.01016537509726704	-0.01600030270723705	0.004383623574368096	0.006041381374587786
-0.01401114594410692	-0.03401955170529965	-0.004813308113252862	0.002287718701197695
-0.02411616759809095	-0.04201036134377334	-0.01337067963138749	0.01281926921692065
-0.02046793197655665	-0.04353105105108256	-0.01206852683087721	0.004978689042528005
-0.01982757238869603	-0.1020826480971715	-0.00175464245527935	0.006674864500206631
-0.0143808844628341	-0.08981634924287758	-0.01106204024761576	0.01665313143742463
-0.001958374504488157	-0.03544233835492652	0.01677634238050201	0.005277907311807762
0.01019531349945586	-0.02014892808612341	0.02570052245189513	-0.01225696239479591
0.01394805578932994	-0.03354535531168186	0.02000892562802449	-0.009840143297850762
0.02320013357255531	-0.04948983605084781	0.01806909798912544	-0.003079628901424548
0.02695284021105778	-0.0569777844800024	0.02166427705602854	-0.009121374871859211
0.02185641077100915	-0.03404518772893931	0.0216387613916081	-0.001371534547044341
0.02416197164585808	-0.012317302888446	0.01162242884132184	-0.003528154902667965
0.01709699883379955	0.00696844328731526	0.01177787163953748	-0.003854473058317661
0.01459633199507479	0.005491394150214626	0.0006225319324118467	-0.003916480799780424
0.01723332352577793	0.02668321243960112	-0.01283396535715828	-0.01454378146112124
-0.00239463073701966	0.04278010026799768	-0.01430556821195122	-0.01962890162177905
-0.00711660662506344	0.02994173196875792	-0.02662624605534088	-0.01545658201453747
-0.02578612546114549	-0.01197012667854427	-0.03020409342186834	-0.007219029802868437
-0.02134666384991412	-0.04547019308459814	-0.02284658825991297	0.0001995306494349792
-0.003138381371993925	-0.06470942260063214	-0.01551592617172308	-0.006779064833938634
0.003027888718662045	-0.04827664229567891	0.01473506327980795	0.00595183052018317
0.01269847855779228	-0.01721601421132875	0.01882628457981701	0.02415450240070748
0.007167430973170017	-0.0104493974511964	0.00259018777789394	0.02269979527208472
0.00780371418155262	0.002404014092745307	-0.004473230996305002	0.01529852671405278
0.006358956705591504	0.03898302829401106	0.01114452641331704	0.007692949179589397
-0.005445466943243994	0.0702586464109597	0.03305314631418602	-0.01205392020407306
-0.008992940509272065	0.08369037199824979	0.03560317184433571	-0.01802861350493193
-0.003593671666963539	0.04745021734292659	0.01572300042640529	-0.005295402010560136
0.008038118399500312	0.04900212114829242	-0.004037757704936244	-0.001137297915172312
0.009482741742443217	0.02027592163595265	-0.01735670145873452	-0.006986208937891625
7.58780895216463e-05	-0.04812370841552931	-0.007626127459393811	0.000425459963698546
-0.004932725607318364	-0.06387232634550039	0.002992163714803424	0.00148736101301563
0.001886799632046142	-0.05755588238346631	0.001924201894475051	-0.004847964395909633
0.004438839026454034	-0.0362927696483075	-0.01266812038119995	-0.005747252874609103
0.00441055552575739	0.001092736037183819	-0.006655104974075246	0.00486462123801515
-0.01344402676810654	0.04757676596423559	-0.007067544014560461	0.008919586694939047
-0.01695247509047387	0.02497279212314108	-0.001421724155191295	-0.002652831620913967
-0.02109568659357475	0.03760144955426841	-0.007679576616845062	-0.001324758222839753
-0.01448243693711998	0.07843281878231206	-0.01840232921321901	0.004985820221028359
-0.006156581659364268	0.08042254250944431	-0.0131185985530829	0.0112058117549146
0.002992877720581771	0.06697016806587661	-0.008181735572401389	0.01430953587844431
0.005682274305419046	0.03824271839634614	0.002222382979348173	0.01858044693484242
0.007489992807999116	0.02169762538920863	0.002691076433909511	0.009869657214489715
0.005948395147555012	-0.01165704571442627	-0.004522857863164934	0.0004097781156934141
0.01207905777709859	-0.03376414554676089	-0.008191187626561503	-0.01504855695243881
0.0188249906203926	-0.02948964874675937	-0.005298959908023033	-0.002680140970973095
0.01226921549329185	-0.005042206031908835	-0.02165565176005321	-0.0111783702245232
0.001395570866305275	0.03184556425854759	-0.007835779156375795	0.0006975828955087173
-0.0001835664673067823	0.05499996079206872	0.005913404122372764	0.005799635220392242
-0.01141926254824645	0.04652869061137752	0.01274563049317369	-0.00124442864574028
-0.0146774770310958	0.02875330717063788	0.006911300027166277	-0.005701343460409409
-0.019132485736413	-0.001131069731487972	0.002956706815125545	-0.002346627582861588
-0.003370090194224569	-0.02897562528586282	-0.003922575520230776	-0.002212260741073134
-0.001316186651169166	-0.05914768984587961	-0.01564192733597417	-0.006816407590423627
-0.002784527666419487	-0.1435146222267687	-0.01111920668294394	-0.005564805098716492
0.0006879810151268481	-0.1553468133725026	-0.005383645419668101	0.004182541795989097
0.00842127153130043	-0.1312227642074626	0.01116342882039962	0.009697412446634289
0.01652920651834122	-0.06292686929448839	0.006381264343382932	0.005980139914449174
0.01620222183370117	0.01624581790659787	-0.003100168398246891	0.00538168857816273
0.01289704877007256	0.07939936539563423	0.01059006678839778	0.006890299686151757
0.009437267809937413	0.1248083076086395	0.02574004377141288	-0.005652642513142952
0.01003141980267814	0.1283499935708018	0.007994913700337258	-0.00181283935602055
0.007802814360178293	0.1211773379988274	-0.002200413218232481	0.01816118610022774
-0.00584020109888103	0.0492500001733595	-0.01312111841430215	0.01806577079963271
-0.01519703198038377	0.04082641979227211	-0.02177376774458393	0.01371682698908827
-0.003792617826241048	-0.04549067859750328	0.01429991559185206	-0.004469805748450086
-0.03567702450266703	-0.08549185915519181	0.02001881608123933	-0.03463888600189011
-0.01675633575959348	-0.09625940571509235	0.01244446110611421	-0.0408558213468463
0.0002106902889438182	-0.201926502079932	0.006376582567361989	-0.03373609131070671
0.001418432103445212	-0.1650464404694675	-0.01099620613789291	-0.02215130840827607
0.006731138142618498	-0.1051857635224329	-0.02402834871779557	-0.004181128991613018
0.003917152586092616	-0.05260823841995103	-0.02017670720232715	-0.007637533046505052
-0.008860645943296228	0.04113513601437462	-0.005106956966023679	0.003435451498064974
-0.001145785424686929	0.1243895192473927	0.01516646449988435	0.0077655767869211
0.004472763076213488	0.1571338124685802	0.01020740919912123	0.009029974130447304
0.002970140189456381	0.1629758752310085	-0.01641187731321427	0.005607785836223735
0.003861502408835017	0.1603716030232619	-0.007130859481998294	-0.005234612739305066
-0.00404262888642748	0.1015175471910565	0.02086568055068191	-0.000846183977433697
0.007778507312921794	0.04934724869263118	0.02810991846107309	0.009775581702436304
-0.002453065148579319	0.008312823974593491	0.01966204318448152	0.01645519492530823
-0.01364125219081348	-0.0312104236155239	0.004389583491748054	0.01078350289169761
-0.02627265968479192	-0.05719761054987531	-0.0002738512361628099	0.002215323014228391
-0.02669119928562878	-0.07535701292722378	0.00370449684533517	-2.350278910235785e-05
-0.02656626252987298	-0.07724861717952959	0.001007737266132443	0.005106563981174186
-0.0108730904364711	-0.06617484600873612	-0.00779935553504711	0.002404807211132657
-0.009720220388807013	-0.06201543472448567	-0.01571857703569644	-0.003971236755313856
-0.0003745745571975869	-0.02830866826181032	-0.007035224211733699	0.0004910507347523048
0.0006962857250699027	-0.009335592416936246	-0.007447957864172369	0.0005427822347391619
0.007222155270203223	0.01383151425451015	-0.00898578046332176	-0.001510938433791737
0.007849854242417721	0.04761194604256318	-0.016533908722119	0.001962711298999685
0.01179609535333666	0.0378652887934432	-0.01732624636071365	0.00122045507625755
0.02153742286349262	0.03332135071039688	-0.02178550802820221	0.003939250225188154
0.0233343007144855	0.04118687182508249	-0.002523819078340665	0.01391678159915109
0.0275365491168047	0.02377703397712308	0.01302405110476593	0.01720226767775734
0.02912533883176371	0.002814803320466126	0.02045261556748601	0.01349326212579256
0.01852639855107809	0.01010639804901698	0.003233044273001457	0.0004424390848737622
0.005003911612189232	0.01210107953952685	0.01490535807353357	-0.003463933844298672
-0.002829261789079206	-0.006361339937529854	0.0276772338534731	-0.009136064877556605
-0.01357744845396933	-0.01572403655527939	0.02135964083848321	-0.007700041824889186
-0.01457988227025446	-0.02334650792371569	0.01945663470909469	-0.0007238933407540405
-0.008739426156792785	-0.02222975468884455	0.01541957383447794	-0.006724461878461716
-0.001943699916352486	-0.01963551598940363	0.01184456934625537	-0.003986477103049499
-0.001360624364920063	-0.02326843577336711	-0.01042047426497681	-0.003255684520180354
-0.00891382420557971	-0.04390999462407254	-0.02643371905564023	0.01145972043498689
-0.007658574749189431	-0.03777117418036063	-0.031956812557094	0.02411722359510227
-0.000618434694072926	-0.04877758566750953	0.009145175446203763	0.01039515876508028
0.008219839744686921	-0.06037849923178688	0.02475897761153746	0.009458117302463723
-0.000582564038271203	-0.05550950159730145	-0.00164279918633866	7.754942076463806e-05
0.02285325664305195	-0.001846275166489247	-0.002943987699712466	-0.003036755481766217
0.01489846229186254	0.005466219973914914	0.004713147740368314	-0.01418542225442037
0.01544025310846435	0.01161314853284169	0.0002111910811146084	-0.004021261295399119
0.02716459039298691	0.01305108993572298	-0.0005653649419599217	0.007295640507134859
0.01539570496343524	-0.01211887837468313	0.004664952808941814	0.003855820224597186
0.002349588467158999	-0.0118525238200614	-0.005097077479337587	-0.007207319966647078
0.002666016683042225	-0.01804520995907764	-0.009246232505346164	-0.01151259670244586
-0.01115021264715354	-0.04213964893766094	-0.01021704359149333	-0.01240968751493653
-0.01824821873566662	-0.03112141338429471	0.004479903543358132	0.002012248732643863
-0.03001570490507011	-0.01068841456370743	0.008710885740661686	0.001818218029065957
-0.01949585283109815	0.04524202663445156	0.01681618761989665	-0.001339764162881833
-0.009275619160306942	0.06732829077794455	0.012027155371142	-0.009109656169901587
-0.01495910757392275	0.04409007502663156	-0.001098075762231101	-0.007766752736243659
0.002760720237732082	0.01542892950832597	-0.01277867076733499	-0.001115914195913745
0.01117538940944388	-0.007066735859391651	-0.003921666344022059	-0.00705304521633536
0.01395962487277662	-0.03386534616267305	-4.352111010145058e-05	-0.001807969451320884
0.009094203777767394	-0.02494973866349051	0.005232163718313465	0.006351025890553851
0.02060105319002601	0.0413545059439963	-0.004704784294292446	0.004564482783409577
0.01188062088946346	0.08287164302540354	-0.007787332714500637	0.01958070260252491
0.004345163344179426	0.1290479565802581	0.01457966467361455	0.005370217389600216
0.004266045369028142	0.1498970836399277	0.01347282646915797	-0.006032348446204042
0.009718770278260696	0.1229430210448527	0.00316773306357122	-0.002532506291482729
0.006408686236035149	0.09341233982046775	-0.006334172030934383	-0.0005825620567212604
-0.01439087154922234	0.03075927930371672	-0.008067242788808644	-0.002174905602083909
-0.02569929432282799	-0.01008269514461434	-0.01639739374548186	0.003502931025014555
-0.01436937720790997	-0.03939735446706125	-0.01690804191331835	-0.001493341740321391
-0.01379899704327025	-0.04024058756793326	-0.003860177570963401	-0.008021449473955711
-0.0171299053267282	-0.03595444725461708	-0.02455110744797298	-0.01471384853737754
-0.01243298132401575	-0.0405419667031961	-0.03223384272904239	-0.02016955791702508
-0.0091267541469347	-0.05152687601673893	-0.01655025598958756	-0.02916979305912069
-0.01129079670715917	-0.03207812186667971	-0.01631668815256929	-0.01907782569019152
0.006160426243740218	0.01718604488707788	-0.02931512262387706	-0.005719035433996146
0.00376143963600203	-0.00732845307781255	-0.02316143706850501	0.0106805651140904
-0.004836208992399206	-0.07837446133449329	0.006289901794043799	0.02908242064049864
-0.008154189034993703	-0.09445226778703869	0.01894643870882093	0.01853336016773919
0.008026140145001491	-0.0456690606508385	0.01317579720331685	0.01124955200831566
0.01121183067268265	0.001328636796475056	0.01381037420166705	0.01050293007183628
0.0122498545526769	0.03888365368215867	0.0006782810719233584	0.01017257906482498
0.01963210500670924	0.04307414176828738	-0.01567649949170031	-0.005535664146269983
0.02810341139606552	0.05353600627023465	-4.06833567721634e-05	-0.002005489449136979
-0.0002478771642643942	0.05323000583482332	0.02195117649179862	-0.0003669479220485481
-0.01096759984338389	0.009773089446211015	0.01705394657532181	-0.006027523529122235
-0.0139747125916423	-0.02824500346909144	0.02157138303398639	-0.001725491740116926
-0.01369791153302178	-0.04440644097672476	0.03687616463774668	-0.006051625350671462
-0.004700499553743434	-0.06433064271284229	0.004843025356983009	-0.02000578482116524
0.0002235005302590172	-0.0684686125970991	-0.01769822690825213	-0.01695838960808572
0.0004626411496382411	-0.06965130050532771	-0.01724092974368032	-0.01010642526054986
0.01501131684580047	-0.05215593533620036	-0.02034379766432671	0.007111065015854024
0.01371269388478715	-0.03083148508012704	-0.01261390727050429	0.01590712091207184
0.0006139513335955534	-0.03793382562080259	0.005609913179941319	0.004559822499009328
-0.003142530070641251	-0.06038398459150436	0.02986026299946176	0.004035561894062937
-0.005152441155208704	-0.02998410283573046	0.02010402652876451	0.008793072383966059
0.01435899392543657	0.03448336262360805	0.002843969840483471	0.01169576238748374
0.01232241206460825	0.06242240002885727	-0.01545105673775247	0.004641958981330904
0.01143802520336002	0.04660962022336203	-0.02247433437512267	0.007100152503669033
0.00421798537158483	0.01229786258213296	0.01227192446329904	-0.007020792215706478
-0.007510328229564039	0.007491782220637203	0.03203668861109044	-0.008789462407405319
-0.01573512888190619	0.002736383407311882	0.01648106344120349	-0.008249774461161111
-0.02432040641020924	-0.017045138869096	0.0004274658209435134	-0.002234713672242697
-0.02407055201107675	-0.01755533620854406	-0.01976644569552853	0.000821273824480836
-0.02394495030605378	-0.04388135784333844	-0.023960051982923	0.00356745750689805
-0.009500431010707447	-0.01078271551071217	-0.02410872393693394	-0.001615014068062294
0.006430889147549207	0.01725773933256533	-0.02058586832059789	-0.00936345509984841
0.01176238520551379	0.01098346120768101	-0.006600990129239045	0.002447609868933233
0.004100798347146152	-0.0003744068337051236	0.01150666206592914	0.02013507117681349
-0.003536998454486437	-0.01458662361462592	0.01813898733270154	0.01199890710822178
-0.002376278472883764	-0.001505794925815018	0.0008445763996468834	4.674254195747139e-05
0.0006784453006065295	0.06182001309845224	9.084722240095253e-05	-0.002390141514728765
-0.0007670338059838919	0.07694459383467979	0.004535419446204344	0.005918098254800557
-0.0004795966127276644	0.1018549416715796	0.01117664933783491	0.001686657257264822
0.00626507458952519	0.09351311601452648	0.01689508202050374	0.006028479672817845
0.01921710845906974	0.1164190230104802	0.003753093613653249	0.007236868968599429
0.0004292121516405657	0.0766019191762589	0.003593258519665612	0.0004857188186674022
-0.009754321178722963	0.03162425162149075	0.006094242413545702	-0.0008784470327928231
-0.008358761026306507	0.004899332103247642	-0.004239362907488679	-0.002826031911498077
-0.0129165852799709	-0.01489540520702689	-0.0009968193457749945	-0.00854681690565854
-0.01723416662612592	-0.02584585738781799	-0.003665734619316699	-0.01801628574592058
-0.02582790449367189	-0.05506548058240919	0.0007630232984209444	-0.00119705943858186
-0.009638582264351008	-0.05304756929159343	-0.004565248587768592	0.005622531029050964
-0.004870461392926389	-0.02847208156234842	-0.02674437968162543	0.003320676464036479
0.008105160604544555	-0.04213308498752819	-0.006009627289657935	0.002199896952776732
0.01277627593449296	-0.03794080389737219	0.006716398626141442	0.002946460798397319
0.0192901530415849	-0.08755008818144062	0.005505648454573828	-0.002531551957941256
0.01477105789469914	-0.1034922028097905	0.008135789847564804	-0.008500550071263359
0.01153897644016649	-0.07288126027795985	0.002669759329241376	0.00427070995115243
0.02496099308770688	-0.00422922422500064	0.00766921610451202	-0.0008385892788939453
0.02446882428593455	0.02459567221894146	0.009925003195309623	0.003626836847657433
0.01605985019737905	0.03718282231802691	0.01177448524595205	0.003538120154996588
0.01416484918499459	0.07142575889340569	0.008895570734777685	0.005293230111386976
0.008969138092850815	0.07879658917310177	0.009365613194319914	0.01730678075831828
-0.005545931730266348	0.03255610233443028	0.003133015537223348	-0.003543009478968443
-0.01005110590178362	0.002797346980742993	-0.00825920234436024	0.008909301640848331
-0.008947936906132738	0.002085911557378038	-0.009731053074018274	-0.01046819810088601
-0.0110904201771372	0.01353798378872217	-0.002708502702383368	-0.01057652549103818
-0.02036701630864658	-0.01629439153536924	0.002386622578311355	-0.01518380744645831
-0.01274798004763404	-0.04296314094287381	-0.01190604597104701	-0.004758942412792267
0.009141169099467101	-0.02530166443197176	-0.01551901542718042	-0.007300357067115953
0.01822656320195911	0.003680566992239269	-3.662805821645154e-05	-0.01656576945913052
0.009617407328478367	0.00932148332543908	0.009506957258037959	-0.009957057256312494
0.007007971439931692	0.004307933403253274	0.01302977580400402	0.008563911344378138
0.005507377106402319	-0.03400208188914507	0.02280472554336412	0.02097666980099806
3.057956228485636e-05	-0.03199895909606262	0.03963031822798946	0.02774653742297583
0.005997388075507449	-0.02516682050949168	0.0145397210671902	0.01319701223774811
0.008682347556426743	0.01425709663742671	-0.01007274192988722	-0.0004831135693175693
0.0009643047432894246	0.05298992831361194	0.004771026197494282	-0.003055170505428644
-0.001063753787071141	0.07294750473909618	0.008497563026361449	-0.01137107332131053
-0.005993842168115952	0.08158020244901566	-0.003779759157670312	-0.004703331438988442
-0.008215041161264406	0.05613339882824397	-0.009164089308809626	-0.007093731572138978
-0.009329072790528014	-0.03033046449604049	-4.770059431358356e-05	0.002853909155593344
-0.01326941888685416	-0.09808595680676506	0.0002808623164284105	-0.004596503183489056
-0.01052938293550488	-0.1200110002155512	0.007568535161256197	0.002127109923064775
-0.003620380084562893	-0.1416827748457596	-0.009392886940068004	0.002501905774524056
0.00582691655434045	-0.1138892350869287	-0.02464807141264608	-0.001283358921815011
0.01452412590259989	-0.05943825868479752	-0.01899538300325492	-0.006877485601244799
0.004039054747950814	0.03101283233317939	-0.0008692127198794105	0.003014079696033926
0.00628498096056343	0.1288103511725866	0.007620205362735766	0.005435709478962905
0.00398677703334993	0.1639915250035685	0.01027137448128935	0.00901559810952972
-0.009341717525852822	0.1467584747974408	0.01296220257218471	0.01225397531538043
-0.01607581658808973	0.09259629614750385	0.006788541450899325	0.009675083914159532
-0.01207374070686223	0.05691650654362671	0.00231502557507351	-6.731602242050065e-05
-0.008820517804530815	0.04046118704118508	-0.01393091729198818	-0.00661831492730476
-0.01663126544649514	-0.008684302456737705	-0.01467522406108561	-0.007345170343830395
-0.01295127391912615	-0.03000179882150156	-0.009808670589178338	-0.007555085019031051
-0.008577090155228876	-0.03874281685543189	-0.009722961832066182	-0.01362404473663276
-5.191767059355105e-05	-0.06695614095382095	-0.01453832765193709	-0.01998855693833192
0.01077557381607991	-0.07180900097314763	-0.01723556578232327	-0.01503203839323996
0.01001757616192774	-0.07997634089664711	-0.02969145131498693	-0.008704044026493546
-0.006246959056730847	-0.1014113091504472	-0.009898689722389	0.007080768512914035
0.001168844532339575	-0.07231734944099961	-0.01348430697350945	0.01974963695313376
0.002408235988585028	-0.06013871064985036	-0.0385137636518703	0.006557906815789554
-0.005770273582404404	-0.04609240627981519	-0.02202819707163524	0.004855032278796695
-0.02098188803772322	0.007377339935252852	0.02836437337004371	-0.006764559874437744
0.0001925861734376571	0.05184238399728925	0.02748963041053187	-0.004511722417252552
0.003762952596012369	0.06830317772609865	0.01604661048238746	-0.002373486102556353
0.01158706228362972	0.09974135618025565	0.01086668020944808	0.006426326876434614
0.009052680811681989	0.08113606520886178	0.008898146293595543	0.0001106067396898667
0.0256449129089398	0.07053724607731197	0.005516035136379671	0.002937323155762885
0.02247296415557832	-0.00634659284393192	-0.01631173379759731	0.001773951978761757
0.006186781152939581	-0.03797577342444016	0.003813576930211592	-0.001785621008039273
0.004030639889469881	-0.05206588234352763	0.006311329681831361	-0.005105065611836563
0.003926236971224224	-0.09020129197635222	-0.001574033936574272	0.003019483703572491
-0.00535147856057202	-0.100341518705469	-0.01400095334199172	-0.007050528310433505
-0.005694362455415441	-0.03668347614818833	-0.007195624569752404	-0.00535407866476064
-0.009717374450910417	-0.02094819078804803	0.0005389729934862552	0.00223663523806373
-0.01475403705062348	0.006073950951910557	-0.004360148626690043	0.009514342197248787
-0.02390144784097591	0.08076376374363317	-0.0009064130955686189	-0.003723991676418105
-0.02279495293084739	0.06543516650941113	0.01508988617781803	-0.002618561847344966
-0.0252353711401049	0.03541856221992362	-0.01241561329475711	-0.007554891355213078
-0.01259910626229778	0.01715495054140101	-0.01680272245494733	-0.01291525166305988
-0.0009249507689355898	0.03648964025370743	-0.0106783128934772	-0.007613694634191316
0.01363312015528407	0.01849072012905769	0.0081590764863642	0.001642942636861443
0.01902179292536064	-0.03548269150021649	0.01283758044585427	0.006615817224928853
0.0281172524475558	-0.03351359228523006	0.01917699600431256	0.01682813290222795
0.04107640683103281	0.01159558185145619	0.01563835708907724	0.008134859134127573
0.03638109277601883	0.01558408013982819	0.007441575597433066	0.002281676635428497
0.03545984934387792	0.01289487922541035	0.006421635804379489	0.00346116931445998
0.01876200456434345	-0.007992199892148459	-0.0005619175326064184	-0.007792675241610643
0.00641030021227403	-0.006276959852462231	-0.01439571920554982	-0.01607304465010714
-0.01528921669056467	-0.04268117752040124	-0.01423362401220936	-0.014761731759671
-0.02386760836038104	-0.0120473270410563	-0.004405606281064798	-0.007990014211309734
-0.02033305508946524	0.06279783535146448	0.003478061476408655	-0.002702883384482932
-0.01453144913025723	0.09760481277788288	0.0126429276755885	0.004479270469579127
-0.01854498824777273	0.03370640209983143	0.01854914561598553	0.001737890725021853
-0.02225468304747731	0.0004576637903834018	0.01489593073934762	-0.003156854706328037
0.003007695350520959	0.0296581459559072	0.00293160537605485	-0.003840390575811722
-0.001534260742465424	0.01252583076545289	-0.01348532423984123	-0.0008155589442805282
-0.005877161931851543	0.002575719505713247	-0.01189212250029865	0.006882611915056095
-0.005434781854269777	0.001803046808784447	-0.002010423016882362	0.01702279740876673
-0.003874583164434235	0.005113132248337975	0.001068767615031278	0.01603598655377018
0.002720978911855031	0.005675222201822636	-0.01722240983613203	0.01236305336039569
0.003498383820765906	0.02445790333984121	-0.03009447053782162	0.005733796203370706
0.003183098560748564	0.03306545534771912	-0.007077567263696901	0.003471637941778636
-0.003476055792152797	-0.00346641265587694	0.02649169054952524	0.01222171816073821
0.004735796414296282	-0.0400020847496221	0.02827217280244824	0.02222153163952595
0.007453733498924935	-0.05249526945300548	0.02878477615382387	0.02004538025967962
0.01309318282225218	-0.08836116109297025	0.01766500762067171	0.01137740478554329
0.007252008188262241	-0.06821767551445904	0.01068577466599355	0.001241374109372713
-0.001566862761775959	-0.04503600769989118	-0.005507611363228645	-0.01436174741378394
-0.007316573488784445	-0.0188047762416343	0.002422564691901415	-0.01528507084722354
0.001759443688850217	0.01146819502907569	0.007020156801647202	-0.01348483029618853
-0.003052728286558141	-0.002947761501589171	-0.009015394981381196	-0.0180932754934806
-0.02435747522188532	-0.003259395560688091	-0.0150287803481203	-0.01398965428556863
-0.0189122808854527	0.01287795819381448	-0.001610516611924979	0.01314019506363804
-0.01006365090094819	0.03142229165924029	0.0011511632281008	0.004669210392481297
0.0005291804920539873	0.01606458895983355	0.001586414771513173	0.002061045104830165
0.00260901137130215	0.01032295726942568	0.005483944427353801	-0.001722630842540254
0.01731667728546217	0.01791919265627015	0.004792309289951335	0.004005700407973878
0.02784279911789707	0.02732496643910289	0.01094064439409412	0.008568097249913316
0.03175344927766163	0.03061528403917655	0.01386095081952374	-0.004182899123109815
0.0197194250555859	0.006465833022346248	0.008592114015049631	-0.000248378923662704
0.01223405995766849	0.01395042921307485	-0.003627760601889236	0.001200600825625294
0.004605447744001865	0.004833900550959979	0.001927650853360647	-0.003816770973927421
-0.009216866880152693	-0.002973976974570929	0.006988919744019581	0.00544985761127261
-0.03024501057201786	-0.01252064211159074	0.00751331927649417	0.01487416220074807
-0.029166585270302	-0.01940499460607894	0.01336123027146159	0.01047537836424895
-0.02087933356610658	-0.03969647279483007	0.0003595272440177777	-0.009105495525957644
-0.0146169701912427	-0.03853388371944039	-0.03292197579051372	-0.0178743595260878
-0.0001698266307482028	-0.04349532778499848	-0.0415432133736879	-0.01203101558260985
-0.0004202539850356566	-0.03655783646375087	-0.03652964823942467	-0.01171311002338349
0.008652788037226388	-0.007744069856999877	-0.01789293885403742	0.00747024621234094
0.01503250061150483	-0.04617839815119682	-0.02361978705600809	0.01294098157160623
0.003508908536991424	-0.05832339027915938	-0.008603794108642588	0.009105899844766946
0.005572526589933425	-0.09175572292040056	0.03144597201653496	-0.0009716494214293293
0.02322056916485407	-0.0521189561990953	0.04908755892328806	0.004447980126102334
0.0217701866948587	0.02504538167356289	0.03495458964635124	0.002176820441608677
0.01985761518253512	0.07312697786644709	0.02228755069699151	0.001144660040359684
0.01898653517838932	0.1074650578991303	0.008688020597341896	-0.001891640060060447
0.01504021323901874	0.1022466311455813	0.001646295140713224	-0.001710546281014362
-0.0130784532019979	0.08021367011162661	-0.0195880796390101	-0.007586289464424368
-0.02882327750186258	0.05903488025959802	-0.01836729914164026	-0.01237335076962827
-0.03375584799320647	-0.007321248206788875	-0.03256537063635731	-0.01745863346617801
-0.03275172398774913	-0.06494095145924304	-0.03145525939371929	-0.01351064295615891
-0.02096933061314234	-0.06435519354784469	-0.01825832028750937	-0.007492794110832354
-0.01713303112807248	-0.01310909165524068	-0.01606110130185556	0.003724221390920377
-0.01362786522181929	0.03077432914225236	0.004581588588089662	0.003541045509913844
-0.002156741673932633	0.06433051248257782	0.002756337227767424	0.001260208278782852
-0.0001268109616610091	0.0837630655723326	0.002172437966377042	-0.008144485091352044
0.005689806170994648	0.08197442147878309	0.002048894750112636	-0.007032295407513695
0.006390257629587751	0.0579063597724826	-0.01072450879424984	-0.001352133000011411
0.003485485620909358	-0.006037837211042657	-0.01727694971290939	0.004753250758379392
0.000883555393475676	-0.04337144813985156	-0.01171321102804736	0.00698590573180533
-0.000798306641344907	-0.05460867920789145	-0.001334527539275994	0.003624715544330113
0.005807807569195005	-0.04199805868155836	0.01320832510724108	0.0008782377673774898
0.01209841107784819	-0.03151016576473606	0.01125067044828084	-0.003878199162816616
0.02140595805528966	-0.02166855520292885	0.01764535557137106	-0.004758999503446786
0.01311654141177683	0.006082484362644833	0.02621858780377543	-0.002298779623571322
-0.002653453249858932	0.02109790982145757	0.02521953441554583	-0.002311573518350756
-0.01722565151089107	-0.007984776331342163	0.0136655438658978	2.842423711632738e-05
-0.01407821991120062	-0.00551247503452181	-0.005284723066867822	-0.008920363705343477
-0.01063234801650769	-0.01350505537472416	-0.007619859314964639	-0.006791372406759255
-0.009208244835345903	-0.04037487029479662	-0.008810705984618685	-0.0005182543080307895
-0.0005594731333460396	-0.05130147103109139	-0.01038555678600006	0.009237079029204341
-0.006091869438779006	-0.04195699406918547	-0.02751161863748634	0.006791615674590921
-0.00620462496159555	-0.05262195333388946	-0.005386745620495715	-0.006689098723359016
-0.006819408663305649	-0.02951389062465309	0.005487329892924968	-0.003378824348923429
-0.008003692773073667	-0.04263029397184063	0.007213786475296714	0.003959660446584979
-0.00371827468718647	-0.03208186950851388	-0.0002586331347634536	0.005318672193997048
0.02563344753928791	0.05284547641615449	0.01472519622820439	0.01000334133289191
0.03384237082407715	0.07179266602478022	0.01977597256856117	0.008424961218739192
0.04624283460018346	0.09463866423679958	0.004412448038668882	0.004799447010199227
0.03508616365384058	0.08391687635417451	0.005326398655235757	0.005664364218747913
0.01055962959426207	0.03475673806487825	-0.002093603614747527	-0.001625832690974447
-0.01334863252472469	-0.007765830768972138	-0.007261722616160056	-0.005353299308133212
-0.02361315032975635	-0.02709894663531601	0.003368081018303633	-0.002126130710846775
-0.02362544340875531	-0.06658187402265033	0.01138166939688866	-0.01141107999117205
-0.01536703014173463	-0.0574605462264287	0.0002761777297033812	-0.009083510191408302
-0.01193607404765132	-0.01549536612084548	-0.0004743144726269	-0.009023763617271177
-0.006401518755333331	-0.01068223703598512	0.008678463791471412	-0.004757946763610131
9.617783424040649e-05	-0.008129289711943063	0.0003680505305683157	-0.007411675276000094
0.009594944890308833	-0.004279901422435374	-0.007686219834833523	-0.0006876679838152252
0.01153574551178163	-0.02098421862579834	-0.01155909581716093	0.01407415052922433
0.02218349654157267	-0.07292479750725749	-0.01592109004266146	0.01039329230005551
0.02121139038452502	-0.07921446148584448	0.001566213077991614	0.01966128112003655
0.02654328836498812	0.03020636063101976	-0.00570511936387873	0.01543615757831731
0.02741780577548013	0.08380818600216768	-0.002392955348953293	0.01931872829533441
0.008557886019757925	0.08032575131459291	0.007023743006060293	0.00688601481394004
-0.01412253476745189	0.1065711631469312	0.01010837013372395	-0.002510766035136649
-0.02688728181323783	0.08118229159706987	0.007579101420377684	0.0001089578415484449
-0.02147255872596093	0.05381209845572192	0.004005123896448777	-0.006932366244868667
-0.02337680017115074	0.02905289436487379	0.02503999858816223	0.001568018086194413
0.01472898681213795	0.05092336560361217	0.02046239761450201	0.008565200804261238
0.01993512905450429	0.03283438461699196	0.02040500951870767	0.01605714812596586
0.003343935864138878	0.005290916220000312	0.01219701146362766	-0.001814168916428206
0.0001147546260688285	-0.01068649920295643	-0.0001458019237378229	-0.004731912034539972
0.002508967655362529	-0.01286144343556841	-0.02868531712634497	-0.005932001390790758
-0.001492001319296111	-0.03259629430236725	-0.02407528681416408	-0.009222237913665126
0.001578882838187592	-0.05099608423124467	-0.01965996549849545	-0.0137227498197053
-0.004297051035046962	-0.09930081165040976	-0.011975587390294	-0.01470889051582245
0.0008256485771743826	-0.0701867345039784	-0.001594547016132012	0.003908540589606843
0.0001001165837805554	-0.05188876005644154	0.0007134711655072454	0.01547415792427471
-0.01066306999177629	-0.04965817254032316	-0.001912057623861907	0.00964533296017534
-0.00536858559764814	-0.08487790088439941	0.003470666472573671	0.01062825561202806
-0.003748810582855284	-0.09768520809479278	0.006223325028153341	-0.0003202702770326366
0.002849647207859359	-0.04970854645346143	-0.0009154799400459497	-0.001645576937164376
0.009211315026028098	-0.0006698743141308516	-0.01578076055850739	0.0006144164491198176
-0.005909813255281027	0.04566157947377682	-0.02371376668025077	-0.005551963978708044
-0.007708889099728375	0.06043859030978314	0.01063353948616287	-0.01250774024923712
-0.01698986489793312	0.08980974190022209	0.04563173945436375	-0.01121572529433942
-0.01769472619326052	0.08342912047953033	0.03869236061637045	-0.006994900874801234
-0.03073884373849702	0.07183540558384557	-0.01761133468416206	-0.01441914632193719
-0.03129449739796921	0.06967850141580006	-0.03866432722575174	-0.0148000347968484
-0.01494261564139595	0.07060717334942324	-0.03001305218828763	-0.006624747760103351
1.011879331997753e-05	0.03432792854496245	-0.009078158213038232	0.002232931149017315
0.008769839816841381	-0.02106561100452883	-0.003582916760585763	0.004230489864320376
0.004009351020328642	-0.1317021456695046	-0.005487608372696785	0.003987556013051945
0.009008857321376434	-0.1756813757623176	0.01037566112814022	0.008137684564174692
-0.00163742035626767	-0.1742918508693507	0.009831888006981088	-0.001374451595932732
-0.006266217981435268	-0.1096493229733104	0.0118932933455211	-0.0003892247053423899
-0.01788268553343947	-0.02285906829435931	-0.003607470886619015	0.005782511305863613
-0.02252529605102576	0.03364729378885541	-0.01960699806164794	-0.007501715349605227
-0.01465658057989325	0.1270416517216123	-0.01407888662673345	-0.008033380841163647
-0.004401340411233237	0.09468778591296051	0.01446887663545791	-0.007711576518400578
0.01008563212390801	0.0579039504820174	0.01995887500802262	0.00743503353248622
0.009440052249821623	0.05628463758765304	-0.0007872372137694494	0.005325023248075246
0.01192026542848158	0.04889820497121446	0.002720798026393395	-0.0001335315178080118
0.008214229781968528	0.03629334162206682	0.007044489641626073	-0.00387138520423801
0.01224693786108225	0.02772168597804534	-0.009029272839230251	-0.005803220731541681
0.01806838240588993	0.02799990594059297	-0.01300905116797992	-0.009668980218475755
0.02329373394079049	0.06375566309431033	-0.008555067873668408	-0.007216381479825682
0.01762515970639077	0.08061347355481713	-0.00325512517702529	-0.001982082382935889
0.009716658671024973	0.05150095127787127	-0.01544754445058943	-0.0006395444462357352
-0.002876391024581862	0.02640052687521519	-0.006831601602630116	0.006803528020498971
-0.004390910044432259	-0.0006821253734957405	0.0002088522519028398	0.01960337546210873
-0.003564752862726088	-0.04744717131972705	-0.003162851850178964	0.02481499785731811
-0.006263833551462664	-0.07394453973139488	-0.0005121115924706499	0.005967050943723478
-0.003480233963317033	-0.07132767714106929	0.007058686843240878	0.004789728116840471
-0.004406247509437176	-0.05751262229663263	0.0428935078624666	0.01034831333375823
0.005473711851359232	-0.001285408473870458	0.0351966642015857	0.01176266504892457
0.0103647086943157	0.02724916044230415	0.004375299804609766	0.002202440338859329
0.004260865803729912	0.01944446407401807	-0.0042109933818366	-0.003474024536311275
-0.001027228935809055	0.0197023827948281	-0.01305799162738869	-0.007321149280823728
-0.0006586865188383422	0.01251453775955874	-0.01856435337803583	-0.007548660432689393
0.007932696518315584	-0.001211519849520288	-0.01977947296062695	-0.009635975147606847
0.0117328829759896	-0.001534204566760241	-0.0189245297003054	-0.00435903194142855
0.01551324155316694	-0.0176476455356371	-0.0322516876229138	-0.00622437951194103
0.02122670193119522	-0.03725965295609794	0.0008312885607508338	-0.007640903010483865
0.01876829952758462	-0.03899759957475863	0.01347101706041674	0.001385908421998681
0.009106543723517458	-0.03111957800956072	-0.003991220397034752	-0.002578647561743012
0.002676777904237417	-0.06104161994152266	-0.008382553445004258	-0.001281088671102682
-0.002106943836477849	-0.06763254885672759	0.002795270295389999	0.01500519190863914
-0.008394760822741284	-0.05029964758920977	0.008856106295496135	0.01316969172687507
-0.01121712711245252	-0.005214003810354343	0.01605054311045404	0.00729462394206748
-0.005518415786334689	0.02353037709702233	0.02750097445180319	0.01400303550153153
0.002405050297654179	0.02950690852789883	0.0199834622608723	0.01553851132013065
-0.002967206651176276	0.03629061618544955	0.01680296556567605	0.005906064403247935
-0.003198181270303762	0.003004719324675303	0.02329591999848657	0.0007182402859290336
0.002258044395545447	-0.001720143537695051	0.01389070216096454	-0.0007571444890969122
