0.02474515511197627	0.02226813153491215	0.03755343182217814	0.06537415161495656
0.006293733534508691	0.004352515247952222	0.01237640059309219	0.0004074598809231425
0.0002305292310708553	0.0001995125399032524	0.0008673282767996199	0.02751846868120745
0.005631817871842819	-0.01647510646634075	0.002906745146909377	0.04727474266059463
0.009192007008628725	-0.02876538749202909	0.009656685583952667	0.1374556704083465
-0.04240129708059961	-0.09250907974113798	0.01248539858114456	0.06511475763983282
-0.09223686802635413	-0.1194717762966716	0.01653637101911953	-0.01161488851170783
-0.0767383433118952	-0.1248933405809937	0.01459114821815834	-0.06089941999564342
-0.06669206071991425	-0.07540652645458314	-0.02626592871514534	-0.07773335401375148
-0.04922999695293216	-0.002965376261491226	-0.03947965335737701	-0.08272683094583566
-0.02223953667977148	0.0316573463640869	-0.01661981940479008	-0.08129299164261836
0.0158819249338105	0.09658605838306937	0.008260021867223551	-0.08515977173429223
0.02321606009521075	0.1366467339857105	0.02413295243173696	-0.06608009207456861
-0.0004803063473259485	0.07909225239310196	0.005837759992380661	-0.01506099959017318
0.01715573717978858	0.03888405365456234	-0.008928409382148259	0.04656966041396364
0.03171967983374714	0.03177440761049159	-0.004728291649729955	0.02047607852940831
0.02575890411742146	0.02826760265348022	-0.001067004304249859	0.01736832741769824
-0.005397193524204922	0.05335118508435886	0.01320391716003334	0.02996941536951954
0.01530477285783292	0.01832055364796081	-0.005814892237021045	0.08868423476834753
0.0247384015742893	-0.00579111491847635	0.0229405019105945	0.1037268170210226
0.02862684901991836	0.002710507831421327	0.01374128323097044	0.08316905358389588
0.02534947414727366	0.009216510762827581	0.02184879955399098	0.03019805128337864
0.01553406782823106	0.00114355713005327	0.02012009974536626	-0.02767866156352175
0.01291917764630579	-0.00546324523070248	0.03374064300263523	-0.02658772702264547
0.01706496583998852	-0.005791404497971608	0.05685559533331475	-0.002697417387054436
0.02428021995960409	-0.006161083587248565	0.067125363900503	0.03548722777817313
0.02412563033855918	-0.02120721016491997	-0.03329140807754122	0.054054014711785
0.01964422573039778	-0.02450806294054877	-0.07571479898703301	0.05439916693506531
0.01917234739668859	-0.02014257628116612	-0.09217208561226979	0.07468945540203185
0.0155669538678407	-0.006183545141307734	-0.05242291010829908	0.09439254530378149
0.01638166516335956	0.01498176408084342	-0.01698491998783291	0.07146360065559047
0.01922485409904141	0.02077020065170571	0.09255058364355882	0.01246033194874391
0.01741386976329126	0.009654552141301799	0.04115701959456333	-0.03905292821746188
0.02174898808764554	-0.008575401803459708	-0.01265278839046833	-0.07580533512655457
0.02843912683827732	-0.01348945741158089	0.02857220085424026	-0.07635718040037255
0.03610368367434792	-0.04356348801865238	0.05195318874407193	-0.07211796948429251
0.02842786416096112	-0.07853153163656283	-0.0165805772820949	-0.04532312671547035
0.01936426911683429	-0.1167003301109463	-0.01466583043869669	-0.04622706119138277
0.002699553458892643	-0.1276360623881196	0.02433694480284298	-0.03021788642995104
-0.008097560054829997	-0.09656009328235454	-0.04014729186059862	-0.01523689772180368
-0.0007281899502978478	-0.01353701229740812	-0.003267777475306958	-0.01739965557567153
-0.006637826354984062	0.1036654348267479	0.01016494520422261	-0.03233260187725356
-0.002438989268180054	0.1696048341706931	0.006880480057437369	-0.03102745750457921
-0.003128989790333524	0.1567132878247372	0.02714942524106302	-0.04144906297250938
-0.01183716751756411	0.08515764228592207	0.02531523819443487	-0.03249859515868526
-0.01139532143251043	0.04786239838818235	0.02434761370957502	0.0310284892358763
-0.01096069834571348	0.02366342551274784	0.07826550800583654	0.02208160558282987
-0.005579305188166914	0.01582724393101098	0.07848199598698352	0.01043744327823897
-0.006880852902150724	0.01027825406651339	0.01334109276415315	-0.001765795496860571
-0.008859516981861769	-0.002512528845711124	0.01355988623173885	0.003469417360664873
-0.004432378360344996	-0.004094921318229047	0.002207400615493057	0.06694175109378314
0.0004922091830563274	-0.007842444886211015	0.01042112190243133	0.09738071469871756
0.001710381813936542	0.006979341257965644	0.05406345221440328	0.1415892902935367
0.004952459871052295	0.007305636092324587	0.07876209176168682	0.1506180504174247
0.0002965509636316088	0.01440626485888898	0.02785841993211111	0.06021234901978666
-0.008366685000667128	-0.009771050446583959	-0.03126052690629714	-0.06010256647920021
-0.01152342599498831	-0.008955905189317362	-0.06441021726602353	-0.09668324813609543
-0.02457641446763334	-0.03850790123886239	-0.1063563572083941	-0.04682913082424608
-0.02296862044280036	-0.09410995923227593	-0.1060557442131594	0.002075661614381493
-0.02727103081598438	-0.102439520597123	-0.04301988743069898	0.01205020257528554
-0.02628747216335236	-0.08038265310371814	0.003770226679819498	0.05857088212940279
-0.01749705087988016	-0.04994974798293798	-0.01813631410201981	0.08219907101030356
-0.008083565854934548	-0.04044508179973285	-0.0134014969328463	-0.02734375320381034
-0.002946705296587291	0.007427166608730921	-0.008885355058806681	-0.1159236122781
-0.003072884049418743	0.05388857340560257	-0.01326979344314659	-0.1009221003141999
0.001682029188781474	0.03447640235898844	-0.04944471429660838	-0.06660324959887068
-0.007848180965505427	0.01423909301207379	-0.009563354270451289	-0.119994011377768
-0.003197695582264832	0.03302799246933052	-0.02340661688255124	0.02323300760547971
0.0034187576510591	0.02000396105814726	-0.05991074321441318	0.05437381543814539
-0.002365718946731409	-0.002225657391090831	-0.06320030251495669	0.02772549343999092
-0.002274277964791957	0.01457303825771291	-0.05339832651482107	-0.0129688666909732
0.0009500562009881174	0.004083320363031159	-0.03641109543766261	-0.06962564419229272
-0.003460398911828677	-0.02192287689745704	-0.03168207270017036	-0.05421838113089397
-0.0171817145442542	-0.04401635637914364	-0.03042347969399606	-0.03800401910019596
-0.02655835730954268	-0.04356251735718511	-0.01267654397259245	-0.04902202465891891
-0.03412941717647428	-0.01387541821969926	-0.01314870345253278	-0.01987333253180981
-0.03553950433087912	-0.02649880271255916	-0.01703306588835053	-0.01764194059870772
-0.0211304916744508	-0.02396636745186272	-0.001136984083942178	-0.02046584337958716
-0.01756811830557945	-0.0034388549136694	0.04799951779172019	0.01318501212411405
0.004503324132458175	0.03768154063572299	0.06482677828135833	0.1861763222414793
0.0115153343703482	0.0641409164905422	0.08810635377435225	0.0651601587623056
0.01328823670975984	0.04092173222290012	0.05280335425369747	-0.04864652365266988
0.005796230380278436	-0.005205308835625213	0.01010915814898698	-0.003433740037465726
0.01207016330587189	-0.006022590281708164	0.0004903716241780474	0.03032439658760085
0.01782393989029936	0.00748952892463949	-0.0165103085411029	0.01510521355583546
0.02993877528626298	0.04085158298375713	0.01028732971243361	0.002463376505530428
0.06593207834655115	0.03477094295697071	-0.000491352459260979	0.002583176733978902
0.03935445709479461	0.04889364840859182	-0.004641486712813061	0.005886458148597174
0.01070958217806788	0.04151066871671233	-0.005459957353050468	0.01243634815924937
0.00476616536644051	0.01256210467204508	0.003856810570880193	0.05200602071409657
-0.002075994143966011	-0.008580701455843318	-0.006262713080021541	0.08762947215020755
-0.01131702779948402	-0.03796243683571989	-0.02038206925935764	0.1085073789133099
-0.024856648744935	-0.03106528954064224	-0.01541086938489509	0.0379094319469194
-0.003204373684788413	-0.02063971966571973	0.01328422887375904	-0.01993811655730296
-0.0205248388723616	0.03252444700356063	0.03472911009103789	-0.07014221553006803
-0.02017512259476567	0.02127528131741102	0.008569000795914213	-0.08657345768393976
-0.02400132008800227	0.005767289368536948	-0.01382692446742692	-0.06286608365863026
-0.02301056621203746	-0.009334122207576959	-0.04005000061694913	-0.035295439715692
-0.02710231192400608	-0.006202440385879071	-0.02608688075926103	-0.03616161374141418
-0.02879417543406441	-0.01482417988973873	0.00446668094486568	-0.07522453865984483
-0.00516676011864599	-0.05672390143459703	0.04992087684829323	-0.08051582238654573
0.01233979128465248	-0.02095545507879443	0.06659093198407874	-0.06620542421853895
0.007740769221974465	0.01949488775626238	0.0091860993981132	-0.05678956435360974
0.01403536431343607	0.04440811216281224	-0.007215518868787839	-0.0605150452501063
0.01852188373201239	0.06388805683466346	-0.03820473131212519	0.04269183909032299
0.0151344487599629	-0.002554867012189068	-0.06045009079688254	0.05065395864661743
0.003738855435080245	-0.0194600239765329	0.1344039063141941	0.07873363146428995
-0.01000972773121049	0.009601244188483208	0.1588142842980362	0.06275806927362697
-0.0153719632632705	0.0245954862016777	0.126283763412315	0.03134186011099034
-0.01328165100096151	0.03538995571943891	0.05912924659681342	0.03616675227391872
-0.01285666292225956	0.01400476994270027	-0.003844839924501589	0.04839357486676528
-0.004844285986483289	0.006270491212163979	0.01085555937543341	0.02646942849790661
0.009597390713953232	-0.006422598344465937	0.01503474537855046	0.02111618378364245
0.008783004440430857	-0.0432920319519378	-0.02727418003597804	0.05005872456079614
0.01713374188045997	-0.08142291637104412	-0.03131522529143276	0.05992020619869875
0.01934917970126967	-0.06823519224663505	-0.01646559111334486	0.07161680738369829
0.0312368279567047	-0.006444413580622537	-0.006893147314661303	0.07065541499353595
0.01835649033726599	0.03050223617031568	0.0300836452464251	0.009628897354809483
0.02036522631652322	0.03887772071615079	-0.0116415122047913	-0.05283857501898964
0.03123304461526935	0.09574608251561646	-0.01541784208487806	-0.06264088801204656
0.02571671462889701	0.05963930853941683	-0.03631855042041423	-0.02859769422704083
0.01606096458052974	0.01983456855176204	-0.1069326476176354	0.07209796439876345
0.01117520468599364	-0.006624632473062477	-0.1025422171526246	0.09462177820572538
-0.0001041833886960962	-0.03450158047673428	-0.02040872027564519	0.1398740070697088
0.00119264769588495	-0.03317198061645801	0.01283323303225571	0.04150575341471062
-0.008863040043599502	0.002488089996958964	-0.04479376415428866	-0.1417539735953609
-0.01019324521002452	-0.008170391765115192	-0.08823012576516889	-0.2547762651599579
-0.0121463579193622	-0.04308289350899401	-0.06051420217818045	-0.2680362101364392
-0.005590552245101315	-0.05856524015688434	-0.01450019960361364	-0.1686523019744587
0.005856296944281821	-0.06199963441412813	0.03599163439597784	-0.08526898771305028
0.008381415323605756	-0.05413899368728471	0.03141992404692404	-0.02117207227565805
0.0170584861995263	-0.02184314768833318	0.02690084601233488	-6.388274930426383e-05
0.0126484320732672	-0.02434929412167184	0.01385882744834259	0.03589915542561858
-0.009667270587185833	-0.006739616065768796	-0.001813894868982101	0.03987208636823206
-0.02187258535940369	0.009752691340353928	-0.006721087190183957	0.02880660463875343
-0.006851820210048242	0.02848346429817979	-0.004478184339779038	0.03007168204399927
0.002875624304476217	0.05671072442229554	0.0001547957722513277	0.02164664350994579
0.01602346075121922	0.04902622504255019	-0.002155648020243361	-0.01834836092561256
0.01727746948019845	0.02175105943411	0.01458996831767552	0.0112693284811235
0.0009316836686540271	-0.01061095585913249	-0.05131695393549188	0.06443388820547312
-0.01542940626961554	-0.01970636532966384	-0.05384820677102867	0.08663980122572836
-0.00832136757094021	-0.002735175102681319	0.007853428668138889	7.038579697913272e-05
-0.01237962020155704	0.0338603339617282	0.0187719298164584	-0.04862171046375003
-0.01865662517008579	0.01884529738224495	0.01817481408788755	-0.04086012775951015
-0.00848440787531967	0.005856198919079932	0.1149367659060569	-0.001563595988827986
-0.00475375821964409	-0.003461164747658148	0.117259082416617	0.03022628360121444
-0.01085515558237476	-0.03358761051633473	0.04772031453078036	0.0476363506337762
-0.02090033991348004	-0.04407743526254388	0.02384716057074459	0.03319585842794407
-0.02725786066548418	-0.05044387801545355	-0.04483139730216442	-0.01119242022918357
-0.002786013204716551	-0.04273942148524532	-0.05075417781052381	-0.01418352997233429
0.01487236256746325	-0.01555651393421869	-0.05723931708195838	0.04310312825839763
0.02145751416628059	-0.004636034808645779	-0.05570084160845175	0.07849777074739908
0.03131161510694599	0.0009152591670426457	0.03494319503310382	0.0796686737636178
0.03618122934351869	0.01090569658182473	0.07320890380995884	0.0437323049153394
0.03356583469659772	0.03018096671525909	0.03211378982895818	0.01256006557034977
0.03475965700842437	0.04151971401471859	-0.004382211955965346	-0.06709468001857567
0.01847920758694978	0.01403039151660138	-0.02313840509237697	-0.0464603986171373
0.01590909422227203	-0.01318601547100959	-0.01818706117589234	-0.03676599727944093
0.01947687244462173	-0.04690320320930211	-0.01871115109071135	-0.01602395340262945
0.00917687907523048	-0.1085562816501481	-0.01348793433872709	0.07391038538113968
-0.00300543629297771	-0.1569522455329763	0.02238874546853439	0.007390797920039095
-0.04065439462587118	-0.1385951371012228	-0.001097348539461799	-0.04393825982065522
-0.04895712773431626	-0.06523291086080209	-0.04742843951891505	-0.04156898118311961
-0.05253100691213693	0.02013424422184078	-0.02469421917231875	0.07599429705410728
-0.01737592045982473	0.1725305471216784	0.01349152481290286	0.08261042202586966
-0.01572570238325319	0.2381699802828164	0.01295344801128087	0.02474353315035076
-0.03122786654395419	0.1729008125356836	-0.03120682387308899	0.02277636344569252
-0.03820642001761062	0.1384805449471891	-0.02534911071716263	0.008284884139840971
-0.03332351317088116	0.1125616812639173	-0.004960638171015598	0.005258879307082657
-0.002729760234495552	0.06662552913081227	-0.03017449082050225	-0.01090365474529108
0.008397794983486234	0.04053150375630489	-0.03158784432851947	-0.03133531378516355
0.01402945061428134	0.01990046175181526	-0.03331280563317546	-0.0119720759248288
0.003085424751038522	-0.009647256162731533	-0.02799146616667466	0.03333774215628393
-0.01012131109323064	-0.02603240207451359	-0.02924208899081901	0.06116422892170943
-0.006962979434988936	-0.02947525242878084	0.04513971871319398	0.0726574784166114
-0.01017087597159672	-0.05161182727799499	0.04558085651285084	0.1369036196368176
-0.007605355138299503	-0.07890517123009426	0.009595271840471323	0.1041515313413413
-0.01271442411320022	-0.08577995384239828	0.03205376851809407	-0.003704944150922484
-0.01208644089227971	-0.06782900195624522	0.01464272989946134	-0.0689033278208132
0.0006753955129866963	-0.05180453785093976	-0.00778861677949594	-0.1067393219864204
0.002662211564077924	-0.05911955568019004	-0.007052693190028922	-0.09644055201328666
0.00708928908446602	-0.06373830387772986	0.02530550769250531	-0.1015931575817962
0.01527093232132593	-0.04552943687282925	-0.002679502029546056	-0.05154827395906703
0.01720726907248878	-0.03043530778115011	-0.03430990109190392	-0.01002354976085117
0.008277467957350147	0.002212281112812151	0.02518859735518352	-0.005205410976080817
-0.01213618849223739	0.005317386821477603	0.0331040653026885	-0.07022884630130743
-0.005487542657692024	0.03128021935849903	0.02250079973456054	-0.1224262582480394
0.02328630275673871	0.03502708719484239	0.03552325592229596	-0.08617239539241946
0.02688547024916402	0.02577361317392525	0.003150349317312621	-0.02592170635877022
0.02073903746752958	0.0107613285964322	-0.03764624920974929	0.008413348020647018
0.0179101476597032	0.0525613573513672	-0.004692511691748774	0.01951635105463636
0.01669515069649041	0.1122262810691441	0.0005169505136857951	0.01037683259443629
0.00757591622146721	0.1030123538381331	-0.03275947933647632	0.05593876770595087
-0.004513336480154811	0.0659646677995714	-0.01882933610136828	0.005562212387411307
-0.01484198192660949	0.09452478815545347	-0.02224565384258368	-0.08063641665755444
-0.016675077415018	0.0117185797199263	0.006618829185194581	-0.04473771032135539
-0.00398049582931741	-0.04151599478803883	-0.002580256519772376	0.0005919811748109675
0.01498157886279077	-0.05028694248698504	0.03617740885624043	0.06361638936713748
0.02786797617125718	-0.03224370649639288	0.03638114364489824	0.1620559674492027
0.01701097404994707	-0.04423240319907119	0.04984276521446956	0.1377684789018876
0.01827511208587067	-0.04770068189991471	0.05632176825043179	0.07859894706816987
0.01734802473547305	-0.03107576708527499	0.02696156316298395	-0.001143285313747361
0.01409281529866444	-0.02305894316856535	0.02725089713411264	-0.1220003814706318
0.009064181898614673	-0.007720721315522576	-0.006462333838659531	-0.1573638851275439
0.02502956658917024	0.00883990656604482	-0.06517149968199862	-0.1194777765454324
0.02055749211785156	-0.002618959886111739	-0.09226570627007544	0.03827656440218976
-0.004963458439006331	-0.04035222927070681	-0.05138919954604672	0.03737786942587716
-0.0192331626386068	-0.06871172262278695	0.03114778856270284	0.009678523646116878
-0.02289231368625139	-0.06979151826284534	0.07927077126734922	0.002704407610242133
-0.01967281610170259	-0.04184587413048542	0.09327203009133422	-0.0143059483737717
-0.02374039875180208	0.01479823569036892	0.06736408692966928	-0.04372205483911906
-0.03762051753508159	0.01859332811279305	0.02309739774551113	-0.009042565884904763
-0.02583046262873781	-0.01544712205376159	-0.01232768758645602	-0.004830422865020069
-0.01587551197813682	0.01294296898691734	-0.0898382549733671	0.01991747868538139
-0.004803436759002188	0.02658751146259586	-0.08852593549135503	0.03643018212758922
-0.0001919522818091109	0.04585287511155266	-0.06221715100555068	0.06968424489803879
-0.000862592394907351	0.06231480326644057	0.05456147932533	0.05903274507496136
0.001122768780346443	0.0590916184245849	0.0609022878452532	0.0553747892630741
-0.006207556860037883	0.01783528381493449	0.06381183026985533	0.02966820846857149
-0.01857179188792042	-0.01302430921394779	0.0388728906186129	-0.02038984391292808
-0.03068719587051842	-0.01518400046433493	-0.003581436875048788	0.01031418514564198
-0.007637633710115132	-0.005247035318914454	-0.03964229664588512	0.0326943552887542
0.01473739921807622	0.004062176795356702	-0.05443199258994041	-0.006245117712644283
0.01682681231847454	-0.003562143154354342	-0.04416922554381252	-0.05492252840308586
0.01127139986460458	-0.004565085442628373	-0.02138522836985937	-0.02413877729001865
-0.004581081273397613	-0.0625583463702513	-0.01689271749881737	-0.06639186688924435
-0.01355215270466	-0.05977323075702654	-0.01691262429821236	-0.09979800392475233
-0.01134959545368065	-0.02966699143737272	-0.01091875182373745	-0.01809571056326817
0.002481171462267932	-0.01847686785641012	-0.009709337615858614	0.01253707056996612
0.009553939526405228	-0.006940187086263942	0.0124416769717597	0.01381231721113362
0.01011735490399733	0.01182870185959365	0.03374173661412041	0.04639541509278199
0.008183579588606441	0.03091478996286776	0.04043664343007886	0.02816211190675839
0.01485600514761861	0.0245338037585803	0.03527650934213	0.01594321106371637
0.01693929609642183	0.03391040718149381	0.01115668464293432	0.02673446941186887
0.008271605858326286	0.01995360861276919	0.01758551748903079	0.03045300861814926
0.001739700233937017	-0.01441408166529172	-0.02233767982583828	0.01807353955135886
0.003380650010412881	-0.01699063873836619	-0.03923106121103793	0.01505145136072463
0.01384319558970698	0.01500604736535765	-0.04753169843638995	-0.01848572490596752
0.01557241509109967	0.05711753493363353	-0.0175335525340485	0.04551529451983889
0.01215172668207255	0.07005808098849252	-0.01223188395819847	0.05915360124958956
0.005436497845023854	0.03433685548601876	-0.04767683402718178	-0.001308326141810448
-0.00502135266624505	0.02284504039043912	-0.03848995730449849	-0.0145369017753619
-0.002742082644327858	0.00934551025629194	-0.03410973240955625	-0.06350492176649734
0.005586282144591095	-0.03879254180165113	-0.029820328021403	-0.1127372808524622
0.01320738099954496	-0.09146882551531359	-0.03332367042391523	-0.07124205925911467
0.009724641091086866	-0.1002043334490341	0.0133243971416416	0.008883266392299641
0.007120131823082942	-0.07656586454480674	0.09199924646435877	0.06035173727691691
0.009092321225389792	-0.03595853748548239	0.04136603826335665	0.02613870596134466
0.01496874113306746	-9.062519658064478e-05	-0.01326886825107899	0.0299173058804833
0.006797794865341297	0.00259241187848199	0.001237878016347702	0.06655911406285381
0.001890739754314832	-0.004365969878536662	0.02761195997805435	0.03057353131306209
0.005842027668458565	-0.005039796039444212	-0.02910089707454994	0.007287526527252494
0.009057665418897484	0.0003888358500938171	-0.0603327628686804	-0.01327697408509758
-0.0148500130686489	0.03032803766205415	-0.05521931264601462	0.01409274443209887
0.0004642447601758917	0.06273298255023776	0.03309975880347198	-0.09215108076658694
0.02311051856483603	0.03379289365712483	0.09877313210768225	-0.07423526480808758
0.02357981319602258	0.01038098449717276	0.03840397774166846	-0.03321514891381062
0.008280975510185523	-0.02116743616911062	0.02405308392050281	-0.01572797752992738
-0.01130769568889202	-0.02113011806398891	-0.004255523205176781	0.04977997278284709
-0.02755552723947769	-0.01510081201455884	-0.02214567878271242	0.07313314774844691
-0.05526969974530527	0.0311352070862235	-0.02540010499011823	0.07712200596051086
-0.06388461169167356	0.03929057416362032	-0.05138303996776054	0.0708850414258976
-0.07693213188615518	-0.01050467303534051	-0.04304546472836691	0.1223388492722383
-0.08529787205487557	0.005735148218873738	0.01385665622257195	0.1965532258630555
-0.04705304243507599	0.01010278952699625	0.02057759916699602	0.1242382182938427
-0.01063612543951972	0.006434371110347264	0.02178055988156954	-0.04187593859580066
0.001485123706620579	-0.003833661106245108	-0.02946779777114718	-0.1863419185790771
0.01027285446300312	-0.007220078487727304	-0.03160803034718242	-0.2696092162544159
0.02620071413964718	-0.01621768248782042	-0.02078931867524705	-0.2903179219580114
0.04457805980640672	-0.00911857529187979	-0.007977156245620749	-0.2178780559247622
0.03931559529333174	0.02337165729606796	-0.007914676015372752	0.1714550238544764
0.03756256088690713	0.03288946671266786	0.01410219165143235	0.3102672726627981
0.04081669820996398	0.02504810974679174	0.006918757623125701	0.1853765508233464
0.05541177862248942	0.04952566167134077	0.05610699188750452	0.03381673245919221
0.03862553746315323	0.05179956275081844	0.06373924277124488	-0.03899876851587894
0.006657347804942131	0.006036869572824842	0.02870215337309387	-0.1506558672053094
-0.03470391961834628	-0.0570827673112695	-0.01349318212761306	-0.1937039664955293
-0.08811129328719175	-0.02150018363985318	-0.008385666144707165	-0.109048076982373
-0.03625269392834445	-0.06583951857692279	-0.01339793713285757	-0.03025158437800783
-0.02752107292480918	-0.02547290311943795	0.05468765502956106	-0.05948210568359666
-0.01889634733552955	-0.02049326348363764	0.08136176410308162	-0.07885787995518528
0.001426176974213694	-0.003901010056143964	0.04612698166794803	-0.01239919366063677
0.02603001788910773	0.05886356120074754	0.02656727621273828	0.01226993845692174
0.03590740078082599	0.08301054169490048	0.008931947736230171	0.03150846508382338
0.02484498372847105	0.06133781634259548	-0.0175810127838158	0.0406207866733145
0.01969992799571615	0.07306760207783382	-0.01464905869400152	0.04969171048173795
0.008101386968280111	0.0428049575426294	-0.004797880309277393	0.06745647206616084
0.0005223646539170563	0.01751153010239374	-0.009661858993824476	0.05705616967470643
-0.01876887718992471	-0.03895380270256226	-0.008342834090872874	0.02306469883129737
-0.02322965497582018	-0.08789665460995755	-0.02060735134875293	0.02270409201255737
-0.0307837193141935	-0.1262784634392922	-0.0016068610843978	-0.007746445247320642
-0.03017651286625842	-0.1346731900441397	-0.0009922831538892859	-0.03885288251974445
-0.01682995003053545	-0.1119899096888777	-0.02631262674813476	-0.0556979074494096
0.006424401956781686	-0.0572894384491807	-0.01783088984493663	-0.04849166741740453
0.02289531437208554	0.01295790121987268	0.01986270482800887	0.006120274679026393
0.03829653765076742	0.06904902712053253	0.04288023539376669	0.05695058540874511
0.01874402632298679	0.07157471358386319	0.02844094880613989	0.05316848982195556
0.002174123988178268	0.0699130898497244	0.01440227540316438	0.120616716728465
0.006084987118388793	0.05679044271745716	-0.04254969174598499	0.1198281408097727
0.01421069256519959	0.04950226465222193	-0.0623903027380988	0.05213781447433882
0.02244273975502425	0.04593880185019007	-0.1009715489902993	0.0183491609912413
0.03043583331864807	0.004329543413951252	-0.09408205637609669	-0.008325676314964803
0.02461401629117032	-0.02824372614248739	-0.03675858418389751	-0.05596080512271305
0.01008181870016827	-0.0446706039994052	-0.03009092660030933	-0.05582736253028207
-0.005385051083640908	-0.05218639279627985	-0.01749554681389041	-0.01257985489660291
-0.007373411462337565	-0.09545609109904427	0.04331817079428322	0.01116004034087685
-0.0003105576768121753	-0.06395899861084081	0.04356414364938906	0.02558058560698702
-0.01229440303098942	-0.0223900933611972	0.01198522439529408	0.02524587139747832
-0.01088139031583294	0.01167275426022336	0.0031540179377559	0.01782817845923419
-0.008432454081729775	0.02928836166250543	0.003620869238014654	0.01612031419447912
-0.003082871754469077	0.05909399530299626	0.003949570934110328	0.009398283321895812
-0.004346638914622498	0.1024571831866223	0.03098976242512759	0.02319665770315589
0.006962439635257812	0.09519736932982993	0.05031134435152718	0.004274334855945196
0.009685224461068996	0.02909984470520637	-0.008619161660164317	0.002712577628751567
0.01991335067318327	0.005607490560290886	-0.02960791074504933	0.006346517414094827
0.01688430356766469	-0.008889706585840471	-0.04034412255589297	0.01226166258204402
0.01347969626334145	-0.01494285763842788	-0.02602247418577737	-0.03434611921796916
0.01406156401668327	-0.01672907593292256	0.03284825934501392	-0.0511098347778387
0.01150517114206418	-0.01479170618452176	0.1245540846855902	0.02592947176070571
0.0008583344283920322	-0.04622451361129631	0.1001202660647982	0.05611503585112903
-0.001630390666027282	-0.04815906052421056	0.07398734846793276	0.0475576376221683
-0.006410975132950829	-0.01491589084739355	0.06768337124260089	0.04663028716992162
-0.01325419409612832	-0.006516721080678843	0.04097509407026606	-0.05542041319683805
-0.02029879121482682	-0.0199251556367078	0.02145534684466052	-0.1605726369854222
-0.004155053079538077	0.06476856079421807	-0.01441892911031263	-0.1561240472370554
0.01377800573610965	0.08682973105067615	-0.009497642622062451	-0.07941204053675241
0.00821553730308335	0.02479762231180327	-0.03719160681383851	-0.01753182000407982
0.007816596148360364	0.01891427109582407	-0.05647030724442145	-0.01121789308204359
0.004920281217505319	0.01391804831898217	-0.0725865778616817	0.03721856077757527
0.01159418190779952	0.02049878712973662	-0.06981821009281311	0.05189331931727569
0.005542592381424897	0.02343327538122741	-0.05282275779877948	-0.05504349524657388
0.002371582769259811	0.0329716903437436	-0.002665868581779618	-0.03385719406227457
-0.01753863216931097	-0.005712159746900033	0.01144465098292784	-0.0116196106903389
-0.06055674294736677	-0.07928066198975575	-0.02829321704155777	0.01751907621783999
-0.06409080472630671	-0.03946482650863947	-0.04407332520207841	0.00381670943133833
-0.02178657917092727	-0.02067282425169227	-0.02518014893618474	0.004808419523606046
-0.007988132534534245	-0.02529381613704335	-0.01355236638482956	0.007522328694596182
-0.004393055518833179	-0.04180911476150874	-0.002176195520565565	0.0166435101822124
-0.01271228665624523	-0.05450552783064595	0.002011888987288839	0.01497036705004702
-0.01839049217514859	-0.07427165016057315	0.001892666438882406	0.06386042585920403
-0.02003032645560537	-0.13121322963164	0.03424688728650069	0.06918471896955462
0.0009722672874158874	-0.1190527721127267	0.1058203937448536	0.05637205569207145
0.003776116351864049	-0.1044816055063795	0.03447976666423302	0.03430338406043748
0.003260984362042786	-0.05971609187623968	-0.01877864111512167	0.0726303175839319
-0.002452902212319794	0.0266567791118841	-0.004549526427602938	0.1395900797472397
0.003835807159381652	0.08786047878461646	0.005664008517671006	0.09947686398898259
0.009544034911648996	0.08419906810263995	-0.006774638971450667	-0.00562841759097691
0.02126652014287728	0.07691533074295656	-0.01249105639971826	-0.1871103091780787
0.03958478121057686	0.1063501347969268	0.001177982193404343	-0.2409897796057263
0.02498916520298791	0.07399470134396086	0.007861181446964211	-0.1930996654715777
-0.002946029536043494	0.04044894388578368	-0.02000069133421008	-0.04780130186015344
-0.0007010589128332784	0.02219661276380151	0.001990565900909382	-0.01482367824724811
0.01590631351930475	0.02206886580388369	-0.08526307500299174	0.001529853504255945
0.02575419402692941	0.0341808912622755	-0.06503011990652763	0.001315890182700664
0.01830164556122396	0.02269182449222619	-0.03108244441860033	-0.00645195951145914
0.006901514867881289	0.0006058735494501898	-0.02551891536801531	0.003470501319215443
-0.03162622427398416	0.01926154663881051	-0.007173567498396474	0.00965097877485448
-0.04232639640097387	0.0490754328817932	0.01788894273935533	0.008208968621108158
-0.0373817881528051	0.01721952362007645	0.01534716403082555	0.009382935366197833
-0.01955234379947944	0.0215303473508853	-0.000632887935061336	0.01283689393065881
-0.008746346116976762	-0.002883463787496124	0.03203852862972062	0.009329723065370809
-0.009379416099715208	-0.004820397550247007	0.01702744719796874	0.04718981340967324
-0.005669463757580128	-0.01781313830334904	0.01899078071934969	0.04451294160213551
-0.001687903756584309	-0.01922608390733893	0.02047513250459353	0.06967603358009701
-0.005464646106467279	0.002728049082803148	-0.01438418104210528	0.06312259607129836
-0.0007483198361692047	0.01278245542900299	-0.06836882000352817	0.01958440701175736
0.006516863421477261	0.007382586552959716	-0.0442844718566657	-0.005399867592218767
0.01441561185845766	0.0176840259630009	-0.02374337681833265	0.04502779980377856
0.03040606335920743	0.01180161378078096	-0.03696438723178438	0.0216228602851966
0.03465184336538475	-0.003652507856818772	0.03837449495595428	0.03101299105937579
0.03285523584636962	-0.01140023945118976	0.0793763665253789	-0.01673364477105905
0.0240059700893732	-0.03470688805144354	0.05320054178617768	-0.1508619630569144
0.001012637117257878	-0.07904927943737432	0.003895311206953586	-0.1234795192354446
-0.003079481704166887	-0.08129347670534071	-0.01521659469183341	-0.04897318339794403
-0.003517837357149084	-0.04567890804476959	0.02226259226002329	-0.0003178631201721553
-0.01209544728863107	-0.01728380512750229	0.06197739171076016	0.01576320727458905
-0.018656185800856	0.006910461343728354	-0.0004279574080663107	0.1101490774194822
-0.03037889819874248	0.03764964720460637	-0.03413607818347206	0.04929143848015358
-0.02228071717069744	0.01307373002169211	-0.002015411402981461	-0.01081040433902303
0.00222448243956982	-0.03741452343510986	0.0263235890010403	0.001343210476664208
0.010493721057005	-0.05433856989795138	0.04232033243625572	0.01002111818684141
0.02224882677735528	-0.03853473081207424	0.0276920100596863	0.02760798019268172
0.02276067756751842	-0.00650645512439677	-0.008003119440525241	0.09219668745142003
0.01387338164764745	0.008171809648953587	0.008794784582407988	0.01385244407568344
0.0193532928281634	0.03076306291796648	0.004327211081569539	-0.009338374249901405
0.02332776008835219	0.05810635002827372	0.02875692599567609	0.06031816594387115
0.0165486246969865	0.09716186318598982	0.04456463435938565	0.1132916448092744
0.02043739597322778	0.06433648250840771	0.05241968078636985	0.02306569987518126
0.01547216368452646	0.02483697393407567	0.02474960503708248	-0.001112954455797082
-0.009054147864098111	-0.01937559548139185	-0.02703313212489724	0.05793437523085287
-0.03400527272509803	-0.0353978347175714	-0.08465874689340942	0.04161452912782041
-0.03335995351173284	-0.02622491217945099	-0.09237545375276893	0.02651406711113741
-0.02452726396488499	-0.01841894119574478	-0.07507664956388203	0.001893426170129048
-0.01821504398618015	-0.02768301782341281	-0.06175451469096804	0.003832277219714665
-0.01030028831875269	-0.00642141641832687	-0.03814590191614634	-0.05614608404351918
0.01653673075246605	0.03456757548551685	0.01708567121054275	-0.04807094984196414
0.01166833797062905	0.02587873195966515	0.02480770177495243	-0.0331766001115775
-0.01012445719434689	0.0022986480778441	0.04510047775989957	-0.01717353154074165
-0.004868525116881022	0.007656891938510786	0.07690792695691188	-0.1027781814210317
0.001415060815627131	-0.05512476504692368	0.04926872077738675	-0.08420557562235459
0.007857333242912762	-0.05346412264941669	0.03097309874796871	-0.02718846279766696
0.02032801476581179	-0.07290965165664917	-0.006550860423321287	-0.04695923076431321
0.02826633386384011	-0.02712087666262659	-0.02215037458383128	-0.06641968616616614
0.03908820200886875	0.0197559650496522	-0.02347212032378248	-0.02560051850782777
0.03833134927098001	0.02348432116008625	-0.04364846841036203	0.01593451132205876
0.0141646007129468	0.05639093940830295	0.01156671361688541	-0.002705509551486453
-0.01197954902769218	0.08220901092260433	0.12117955429325	-0.03231391647469307
-0.0367317462188787	0.08646933924632821	0.07762648034508463	-0.0288546807028175
-0.01468105707111326	0.05378876557683368	0.01974885436683751	-0.01786109535791707
-0.01271635765950225	0.00772042810246564	-0.005778560466221258	0.06230523520587149
-0.0303117926139645	-0.01415489043831455	-0.0331088956142284	0.05524023968445393
-0.05351031293821897	-0.02024180810537434	-0.02028636648181411	0.05057214811787034
-0.0357627604454747	-0.0233863510457208	-0.03245056656847509	0.05543072029654016
-0.02539339114696539	-0.02217987130314644	-0.04763467388186611	-0.0191257734341985
-0.01770769750081155	-0.0106915698543579	-0.05514444674589004	-0.04745233037342163
-0.01635538727621805	-0.008205274633148754	-0.03593892848451095	-0.04783850820365235
-0.01337821076805326	-0.008841690561524528	-0.04147865417463109	-0.1045445285595436
-0.005107326226031851	-0.0335167540210452	-0.02254266144758846	-0.1003395911011179
0.004871422322142055	-0.07656920146200723	-0.01731185999704734	-0.07409429815844758
0.009920681857109183	-0.09931151199207372	0.02251213337552609	-0.02332115197330736
0.01154587101223797	-0.07176810101003944	0.04279880161189482	0.1129210080575666
0.007370700449117456	-0.01458153300862973	0.04805166423187792	0.1248972283340692
0.01098643871048236	0.01584759472836321	0.0007260900379745638	0.09839608097305913
0.009861818114231596	0.02842387567292335	-0.08493846222410949	0.1114007300106538
0.003088193759411131	0.04822530419084008	-0.09160271939852413	0.07034107866409231
0.009573706209466726	0.04206546105637813	-0.05039976145362772	0.07039597174311629
0.01482420352219666	0.03908980044776715	0.002477896450910061	0.01119063222544446
0.008955670658582665	0.02497489113070382	0.04165666704225978	-0.04039425151927461
0.001786323032830161	0.02993169704548278	0.04143575267647739	-0.1214644238165221
-0.003901308615919218	0.05698585318682337	0.03542459701853898	-0.1580765713970629
-0.004481592265416412	0.01182282699806265	0.04994509022380027	-0.1216732820966566
0.003500378527558664	-0.02971011625625631	0.0215001344670157	-0.05763172086880709
0.005681462023829961	-0.04940113330508974	0.04934018555266485	-0.01748268252770326
0.005222943768183567	-0.07274980208072698	0.04034774818230964	0.02084300379929575
0.002504512769151073	-0.05458700732573162	0.03563410785015014	0.008148411477328955
0.006409808750982528	-0.004357528285692979	0.03800078595641826	-0.01516788827675933
-0.01749205195848328	-0.006158780247816813	0.0352103911910514	-0.01348619828333627
-0.007586732889215847	-0.00866036643409656	-0.01163137093172638	-0.003551229756478272
-0.002050085947150806	-0.003614616105363872	-0.04544500503812478	-0.002625992142034854
0.008578060203148719	0.01795598935901588	-0.06677361413001494	0.0072224702317855
0.01296290523188033	0.0696162387084608	-0.05352019668432321	0.02326643482838537
0.01352492582859808	0.08584221131557597	0.01137349834119872	0.05313486926515606
0.01352409613473935	0.05018587151007668	-0.007365933830087813	0.03049052121117627
0.008265729058488791	0.01753647364250238	0.01528597245134684	0.03878337714799127
0.02956051811881167	0.01272602728112342	-0.01305039543597739	0.04241439386787073
0.04032253336803166	0.03209896517943853	-0.01918914294187592	0.05714527006137363
0.04884989022290596	0.04579223397599748	-0.01652104819388666	0.1295032229968412
0.03864313141157139	0.02836885163446121	-0.02643585122160209	0.08743391939803247
0.03134889052425332	0.02131004127935994	-0.03393649483647665	-0.02639569945897203
0.009700440522868423	0.0239798028282508	-0.03092896340897276	-0.04051994596584611
-0.00118405147206604	0.009753065971306939	-0.05539595317135085	-0.05056927484997295
-0.02125147581796219	-0.02207479179502378	0.004428667578172805	-0.04097476452054825
-0.05243710314272331	-0.02107095945616335	0.06745889487148576	-0.03145078843461306
-0.04819392095247341	-0.04366994782783502	0.03967768832227467	0.009212401122960475
-0.04188520130106408	-0.05257546760229193	0.01918520976270663	0.15855302817216
-0.04874307477301489	-0.06643468516178555	0.0135537710385892	0.2315658643749789
-0.03608517259885061	-0.03813887734184865	0.002208012403517669	0.1045153594598247
-0.03158435115821712	0.004017817891840165	0.01679023609008866	0.03532433763749301
-0.03160924798670069	-0.000286928936044887	0.009214788462091898	-0.06068166277954903
-0.02584791249686781	-0.007765490025177992	-0.01510007175912357	-0.1347164742836434
0.004037387028639833	0.004455060265688429	-0.02900466296728716	-0.1161417075950005
0.01958058430093558	0.0026913514264352	-0.05412192899034723	-0.05194347157356995
0.02604961996318464	0.0135356359221565	-0.04007210409253858	-0.01847713982217256
0.03004145752418745	0.01028056575428887	-0.01196430534531067	-0.03831834379116254
0.02195760741478586	0.003496636724290445	-0.006789551870451478	-0.07098309085119252
0.02440430105084076	0.0111035035555977	-0.007298492723880164	-0.05168605657198458
0.006381672614959474	0.006723127197678072	-0.07968676433066946	-0.02797497827318437
-0.02680708705947881	-0.008467440595068631	-0.03958806845193329	-0.04678110115847047
-0.02491843943442675	-0.02406876296592881	-0.006750512194309243	-0.06261322495417691
-0.02380065167448171	-0.0630422292592883	0.04696749598081299	0.001257427216191343
-0.03272706855220029	-0.08698521808816859	0.1030983099853757	0.1099598025595911
-0.000743452631728769	-0.09123226946827816	0.1331972722577199	0.1322600694298486
0.008914092321215731	-0.05764114458505797	0.07856010772632956	0.1015585766222537
0.006558761642917469	-0.05510730422965811	0.02474125719578281	0.09273466874782338
0.003978410787268722	-0.03247464181380207	0.0110014682363064	0.0344782732765823
0.004743539114889827	0.05486151084574215	0.005893860506555286	0.02260100073789085
-0.003444243977195439	0.08566896116320841	0.005504036346604147	-0.001657525410542815
-0.005350570341483779	0.0998817655802139	0.008549566480716756	-0.0768811277148739
0.01133821312545553	0.0619458139768656	-0.0368135744275563	-0.1246049996886545
0.01068885020091819	0.01656330557276183	-0.04553011349376135	-0.1257376788056414
0.004031627511506744	0.008844560593369466	-0.0178718249276495	-0.08238457560809674
0.007474805602789808	-0.003647907720211078	-0.0387503614247353	-0.05683521017674123
0.01609299288804495	-0.01338007593687098	-0.06684314049807061	-0.05540800854246734
0.01325007227098826	-0.004875625946892013	-0.02700103047658802	-0.02404001947628159
0.01101846310782818	0.05830714055231932	0.0858275807929197	-0.05218824828847086
-0.0004575061312515627	0.05342835103596752	0.1307265900247656	-0.08937873998324762
-0.007414365140839005	-0.01347196723872706	0.07785806418776288	-0.01614021167456962
-0.01307355406722039	-0.03976129755986588	-0.002784247698936733	0.0504747514915148
0.006772226193003055	-0.02773625525995911	-0.01029151560641117	0.03427853486307698
0.004526826534451413	-0.01821631618934671	-0.008448526838922032	0.02347591648415051
0.01061189011149585	0.002319997392562418	-0.007038870892201246	0.0113868559237668
0.02641175429958239	0.02103870593400827	-0.05421788856144663	0.028573829950159
0.0263580564728684	-0.02039944080492343	-0.06283502529810162	0.06625862373529928
0.01690713032646809	-0.01786468972418772	0.05186563333857159	0.0993478494082418
0.01908139746456298	-0.01657437623828781	0.06007561950519047	0.1221024540251272
0.02546894962653094	0.01287205980925274	0.001950567972327999	0.08312864044817721
0.02919698603324455	0.06212165972529944	-0.03942544872844714	0.02066610476873966
0.02622802836314594	0.1050895361094226	-0.02008668461840375	-0.01526486502990237
0.006945219419314101	0.0635354858874001	0.01831316049137386	-0.04455451000515966
-0.007468048651380063	0.03577338466753196	-0.00901490677048079	-0.0883276836185657
-0.03710250106802777	0.01257316965145424	-0.01137969247110889	-0.05911752839720386
-0.0465024942370158	-0.0128462300691234	-0.01068364911086733	-0.0612228840177783
-0.03593332749354462	-0.03326331518280811	-0.003292824495437345	-0.07813181939303396
-0.02466633029305699	-0.01713666799710558	-0.008845153831010614	0.004358734740780471
-0.02032180975055831	-0.02519658172587213	-0.03877102515779297	0.007352732172183762
-0.018222276108501	-0.05191670861244144	-0.01816674860093025	0.07522827990919198
-0.01299550781518847	-0.04660867586168006	-0.008181099666953566	0.1289568077739462
-0.006745120096626152	-0.02050492331480253	0.01423316364479507	-0.007921032956164085
-0.005798224452603071	0.01949274700008004	0.0456764751122945	-0.03641575428441187
0.002960750301136192	0.01878689103114095	0.01132516109835765	-0.05411437850431841
0.002572221466149876	0.01853081621388755	-0.04132628620936046	-0.06855086960605826
0.004570990385150167	0.01838313533794201	-0.05306386991333966	-0.01914151117915901
0.01556013724476531	0.02742925917405736	-0.03210395339960793	0.009249460349062369
0.01982446424007931	0.01753737449120387	-0.02679604309756822	0.01796157538735687
0.02656082107955326	0.006416711629360478	0.06534717043958506	0.006818969488163669
0.02027080427080403	-0.009864455978001643	0.03071266685859311	-0.01358430324284072
0.01532155951405781	-0.02194700058895003	-0.001909577990219596	-0.004287828567257363
0.0106037046505251	-0.06320601088984384	-0.04448185209717894	0.02815378306526424
-0.006583895591763517	-0.08278278896995268	-0.04265762373382589	0.05650544782390841
-0.009280933443067015	-0.08685252863364651	0.007787897596507846	0.1328706666214348
-0.003216716483816053	-0.06457954862292231	-0.008356262570472141	0.1322719673262728
-0.004310129086491596	-0.02865235890800442	-0.03213825732876145	0.08242598287202932
-0.008855258407593049	-0.01049613094474886	-0.03666051760868132	0.0613928924903251
-0.01538133762011394	0.02041842362709284	-0.02348565835502059	-0.02078280731466188
-0.01401798225900812	0.05506610317654737	0.001705285387098549	-0.1275881684744661
0.002475035599371259	0.03226337852331374	0.01261370469594193	-0.1072442857579736
3.830697233904791e-05	0.007992148622458622	0.04907958639215681	-0.01929148655227322
-0.01538704275578147	-0.03286655568574789	0.00612256006776706	-0.01009103278606648
0.004075427432964364	-0.04839196964669745	0.00280473698161243	-0.01092130270374367
0.03161090007073696	-0.02865946598889852	0.00971733306653505	-0.03864541256643722
0.04203030991368827	-0.0001525838710145007	-0.002110788241137651	-0.123373260013958
0.02553229780307468	0.0588965390989492	-0.01650113871012269	-0.1296568010793433
0.02479176689762902	0.1595632941632108	-0.03150470584776661	-0.08383250619659992
0.01788956980733769	0.1497404651100953	-0.0229843335964663	0.1025406122521547
0.004191021384810693	0.08876015665532565	0.003733653515863986	0.08094509372321013
-0.005177877713767164	-0.01909141636579351	0.03121502326453811	-0.007768434384664313
-0.0126422246259243	-0.06976279329219776	0.01979709799619342	-0.05881211278273153
-0.04122879173348849	-0.09909215038746751	-0.02166201582504514	-0.01873098942073686
-0.0766602761346066	-0.08243584318566304	0.01346288389715026	0.1182294377140881
-0.05205232008105322	-0.04561965568271854	0.006177576436705753	0.07025516801601017
-0.03306514814610061	0.02628470682238835	0.01526721013914784	0.007465634720001836
-0.01982819537041896	0.05251928117988611	-0.02142606048110984	-0.02949344857404965
-0.02187902732269336	0.03975513077108614	-0.02978149890770646	-0.08066707242455064
-0.01875973749052744	0.04457358737741297	-0.02823607931433315	-0.05183147573099652
-0.01044828696095787	-0.01022803023674475	-0.01553422137424493	0.03649718415107991
-0.004142481489426934	-0.01075513648707727	0.02145378624636479	0.05591576668706101
0.008887723508720927	-0.009271172176094935	0.121989577069463	-0.0208954580167852
0.01984789903867768	-0.00603842148097916	0.1211442502491818	-0.02532866412796306
0.02432578194606418	-0.003675078672384757	0.03898763274043287	-0.006322657925118049
0.03365788807740584	0.003552018294687524	0.001279118928162407	0.001594154866312421
0.01090366622815178	-0.008788498032507624	-0.01869001118280434	0.02570061385365246
0.008828575585350816	-0.003027605236764554	-0.03867302744739164	0.04577358666539208
-0.004309335522562792	-0.00153333171202006	-0.05321444003342751	0.03962098130066273
-0.01754942615542004	-0.02088544035290063	-0.02868350660425741	0.02991790047922018
-0.0002491621588348272	-0.02584855688227448	0.01464549204697461	0.01184827191321853
0.01199345189710715	-0.01361138624633984	0.05069467773390965	-0.02885941847037721
0.03448231738572436	-0.006737316746889719	0.03892764103853259	-0.02563080063297913
0.04616453835123108	-0.007887757819282571	0.01593775460445749	-0.02279023227403168
0.04616931689465565	0.002860811200131968	0.004127446029589726	0.07638807604063824
0.04664763067743589	0.02057909936384388	0.01793707211879054	0.0767268557509372
0.02289494122992407	0.01687478026636568	-0.01401629474157989	0.02629455625988665
-0.004879889160567814	0.01364578865837953	-0.04273201178612968	0.01430920142200056
0.003871827133680301	0.03546480355579334	-0.0003460279792020074	0.02422123709090458
-0.009974568677727049	0.04447498488855163	0.00465713780220162	0.05988366438022242
-0.04113035200318713	0.02475195611513174	-0.00362407386294041	0.06518417774934253
-0.0682006162433207	0.001453880772490999	0.005518757867323645	0.05988575408286514
-0.05779933313589851	-0.005419172670097188	0.03734559780649716	0.04385209732940147
-0.03351750951933165	-0.01392279786262124	0.05029034045708976	-0.02503888286834653
-0.02767978576356559	-0.006087939658496567	0.01749143585410297	-0.07602901409459488
-0.01903268477549991	-0.02771594289440992	-0.02844954329282931	-0.09175181237134421
-0.01969241641866191	-0.04449497126719119	-0.02510266497647146	-0.09190822406712466
-0.01496575167457389	-0.03562948415817389	-0.04432006063114258	-0.05119942380826568
-0.01333923862853421	-0.02890631953327283	-0.05463043780337499	0.0301141783700109
-0.01567095080333622	-0.007740444068875129	-0.08060548261041137	0.1003844087503406
-0.01115446889352624	-0.006277596260967182	-0.02839502596325664	0.1114340659529154
0.005203956263662458	-0.02350219386953196	0.002345245245683152	0.0917588459377139
0.005861914191582722	-0.03445478856256297	-0.001048418624526159	-0.02613437646544586
0.01432264419105173	-0.005842801498012821	-0.01100057572524692	-0.1004743396583248
0.02592775482187277	0.03793796887004694	-0.002933900307896503	-0.2193637579273102
0.02648614659924368	0.05633170779634544	0.02453223991608315	-0.1522420098922034
0.02849899357652908	0.05504799928341847	0.0482025275180787	-0.08352671198329184
0.0340457219887654	0.0282956696536376	0.01162316048678427	-0.03014961511292727
0.04174055714359379	-0.01243126386368249	-0.008598499149008216	-0.006763451760517274
0.02058551048247688	-0.05868720334991639	-0.01723725761320639	-0.005634834316579298
0.01007396017956762	-0.0415790174244124	-0.02626112726713949	-0.006505245802323347
0.001851181882474626	-0.0429228982761188	-0.03463838390019103	-0.02571871434005698
-0.0012131609615922	-0.0653731141172807	-0.03294819236636803	-0.02961984334983616
-0.007805448860549407	-0.04629319913076541	-0.0460628605336761	-0.04130587065813678
-0.006392494187719492	-0.01984614546845235	-0.04164724323519742	-0.04479701514723465
-0.008545351374106804	0.01829675812981389	-0.04046538610706575	-0.05530550435936856
-0.002080043441899878	0.03936258264951697	0.03440264124557779	-0.04062815991822567
0.01347450489610677	0.0688427531699095	0.08136967653832171	-0.003396781924096693
0.01534387091481849	0.02998131823830294	0.1278763507603088	0.1397745286123665
0.01892279904300978	0.03689489661171597	0.08428635225258409	0.1534074194490087
0.02490039833563037	0.05264595717182291	0.04710629004039525	0.07818147999032772
0.02032354086898071	0.03326321643901951	0.002512622553093219	0.06020248415114848
0.01441023311134652	0.0216195444434875	0.0004983500066915928	0.05758115211287062
0.01444279161734233	0.03106337849270971	0.001922864463225571	0.01910742619707873
0.02025820266314633	0.02544272322909256	0.008830291601117764	0.01154611163166415
0.0384109973580056	0.03076179890367627	-0.003249641462823792	0.001501561020845022
0.008416696918048779	0.006531301309063979	-0.01603885107804097	-0.008693618125620455
-0.02787106960906255	-0.07015595656632231	-0.02937237643363072	-0.006847439050467253
-0.02385653385321968	-0.06270374859376465	-0.02801807232830752	-0.01058769817413154
-0.02573264451177593	-0.01554131860239824	-0.02162808564466944	-0.001144942034170127
-0.02587794482226567	-0.0626152103230538	-0.005122375378905719	0.01399583501449071
-0.02316301245533859	-0.04384104266220003	0.0009698244252335644	0.007996446817604639
-0.0158124350959153	-0.01311995076865646	-0.009540021268005938	-0.0008211360372051951
-0.01001910574388044	0.04301423391901305	-0.02219470524926457	0.0009323068770217773
-0.002919703310330232	0.06431718384952889	-0.02224880110710789	0.03725671552004228
-0.001108381160738292	0.07112304778002518	-0.01687792103637396	0.04755974009151465
-0.007070095194897236	0.09521102262928602	-0.01722108577749707	0.01759607543419087
-0.005077751752130964	0.04603620222931446	-0.003187334905771085	0.01731860803120969
-0.001591384101068154	0.00193215897751012	-0.00739702384596619	0.03737446998680831
0.003743321837480399	-0.005215917853100747	-0.01503353231677011	0.01399674411896299
0.01567601651087029	-0.00406226593256157	0.005686937013984657	-0.05589150087988163
0.03204212641096485	0.003609137810109017	0.005653431671372151	-0.06851751360740663
0.03522986690720374	0.009913740233171809	-0.003754080028436971	-0.04687947276195718
0.03146749124454455	-0.06293931761869029	-0.009945835307992675	-0.01578242183733435
0.01893672726387783	-0.1012083565547422	0.007892501934120085	0.08597754921392518
0.01070156315994303	-0.07740751351342821	-0.0001154230076845639	0.1867465695110447
-0.006460081022823568	-0.05494805866781683	-0.009693485364063765	0.0305609308906569
-0.01983250023399642	-0.03777350625956591	0.01024435666450132	-0.02087732452167535
-0.02588252596281558	-0.01626233765922767	0.01783847788734287	-0.007764605762416434
-0.04635721771181484	0.06907881498905655	0.009283108144822045	-0.09600092146586089
-0.0250628829772859	0.009944921396549787	-0.008391137383312375	-0.1052058074783415
-0.04229698245671366	-0.03601443676665494	-0.02056507012361835	-0.07696414833668092
-0.04255467894871055	-0.01514762666211765	-0.01843623883975177	-0.07222024450528312
-0.02505001022274383	-0.007885305492651477	-0.007342761515957685	-0.06170085789231383
-0.02086179844093944	-0.019625973771454	-0.01263117201149832	-0.01361828088097539
-0.006706912854878401	-0.01925699253120455	0.004860144015241645	0.004331866541117065
-0.003912424468636986	0.02625284899908814	0.0001100725865015307	-0.009088093213232456
-0.0001480867277327821	-0.03142868073287047	-0.02635520474954384	-0.0167384863040878
-0.0001773481596305945	-0.05535169617901783	-0.0238172829210223	-0.007777960609990518
0.01497042601611039	0.004856020896336689	0.01536893124576997	0.0007464325261351617
0.03981708629417155	0.09058897661769366	0.06807346626988607	0.004664658759700426
0.04743499322899256	0.07130349048714156	0.05735640820135481	0.03799092561982172
0.03458390517653694	0.03651107813149066	0.04427201856726314	0.09209102429354789
0.01903260559348354	0.05346131503636369	0.06049552749597082	0.0904822366980383
0.009539863486593299	0.05161065571176536	0.02919530887488454	0.07814971850660508
-0.005277428874333716	0.05899854996096857	0.005327218533916006	0.06369977106274104
-0.01879404429154709	0.05203890551309294	-0.03935171368465198	0.0180554631110099
-0.01232125803136048	0.0350821014915999	-0.06377746385385392	0.0215394938367778
-0.04152119975959721	-0.04682380819939095	-0.03997484718692258	-0.001779659824293214
-0.08233747177429035	-0.06936964684880798	-0.03081206039399889	-0.07065007522911848
-0.07009609203262022	-0.07167008555856098	-0.07665524151602028	-0.08345074635292275
-0.008140146070307804	-0.04319315006605864	-0.04382560125795453	-0.09379958076547938
0.002737128591361305	-0.07165139528508706	0.09148865457217661	-0.09570111655610691
0.001077365502072243	-0.02361264779969938	0.09985221143393752	-0.1181467210459979
0.006812697689457451	0.05176259506166937	0.0474905052721986	-0.09268755399482641
0.00653811260968968	0.04075961051396723	-0.04494993896978015	-0.04431412354409029
0.009737977050686851	0.01859761596710498	-0.03738818737280558	0.02889509523922351
0.00817842949466673	0.02589279903396003	-0.02827776942221038	0.02164660081007807
-0.01897970172539965	0.05158943321321139	0.03433550742784422	0.01202781624850219
-0.01812858686610192	0.04315814619787484	0.1147373833109147	0.02536670166775917
-0.003207103340864817	-0.01561958916170562	0.06475702743550363	0.03263292473355928
0.004239396363178023	-0.07102729703814956	0.02270283625162851	0.01581339888690538
0.01358154275823874	-0.0733575674771144	0.02657010306657032	0.04050343899531663
0.01474059112260507	-0.04366918595996495	0.01245796943660379	0.05013794818480486
0.02267403348577478	0.01156564606603927	-0.001434872558350092	-0.01364363469293304
0.01503838125237391	0.04971251379852309	-0.06196946403118293	-0.04884872389492186
0.01630453086362318	0.07031667370075785	-0.07114150950673298	-0.04246243801597455
0.02296966836367548	0.06688833753819085	-0.01902791674777868	-0.006423872146854443
0.0216172175079529	0.04324012994708306	0.0137201228925776	0.02123422749132458
0.01838495109423159	0.01573624606944192	0.01385336715700859	0.02074181017387575
0.01114290455521015	-0.03629807956540931	0.005554820664002359	0.02642801595159961
0.0128796760616388	-0.02482608261240579	-0.01622490330631353	0.02564840030712161
0.02257763477287728	-0.006516302710665542	-0.01466429152737388	0.04120156819905122
0.02524752016875467	0.01969989929776523	-0.02726163273431383	0.01031304218924933
0.02492901965562438	0.02207311749526822	-0.01397266787642703	0.002229420363562924
0.01523873886955634	-0.02132935828411587	0.00593050724581976	0.005280587759950211
0.009931637606371255	-0.05351496614688913	0.0387723783167933	0.0062213474639868
-0.005449530516805675	-0.0834344298048826	0.07020880911991151	0.01383674022981794
-0.008086889238720679	-0.08275859848054712	0.03648896584462011	0.1057375390817964
-0.0009628562273415154	-0.05256197910350561	-0.02259309518904862	0.05290123387590071
0.008093222105198168	-0.02689046733479622	-0.07036894724349858	0.0003424730042265858
0.009897645436659695	-0.009307836298059032	-0.05935436264604959	0.05049316111620229
0.01385915882994204	-0.006374268298074954	-0.03926842449449267	0.04483121356105475
0.01207842599382366	-0.004806752989518663	-0.04294573228912612	0.06410542375942628
-0.002405509969109886	-0.04274671604495241	0.0212058554652888	0.09469168443466477
-0.00991800098682157	-0.06328865434078415	0.01206547048646976	0.04948508540784201
-0.004109027473735588	-0.05156752042190776	0.005712597784104797	-0.008622466695259077
0.0007987496704838492	-0.05953354052445137	0.01056327078269437	-0.01281725290678806
-0.01635797369244584	-0.02248518638636862	-0.02049379987523104	-0.05505680997639661
0.004481116271262412	0.0646706194754432	-0.01412314035445559	-0.07165987883484257
0.0193208207284744	0.1121666274838753	0.0182422379161199	0.01861440936311017
0.01571801170705047	0.07195501151993092	-0.01093436687729094	-0.01808906078079157
0.005553098935399325	0.07701727186678746	-0.007411451423366956	-0.1220189462112432
0.002391623514785078	0.1285109752117378	-0.1095371235011677	-0.08564588650050818
0.003371942992267133	0.05580763848202341	-0.05872251416124934	-0.03964420595887895
-0.005981716185635621	0.004994504003240225	-0.02616677875729613	-0.02372212796985336
-0.004521291022540045	-0.03628107083452942	-0.04864570707800572	-0.009106830537565249
-0.02167443928074324	-0.04727512231053854	-0.05427774473339464	-0.007295789588982761
-0.04190830590721973	-0.07588407129010366	-0.03708898101711509	0.03302168623038432
-0.04747007731786718	-0.1241343176634047	0.005278878195716357	0.04605347726476573
-0.03612474242341231	-0.08466454063516661	0.06437968556275928	0.0241925971005847
-0.019194053515385	-0.03442294863886603	0.1514316685502178	0.02286521637653473
-0.007811711520337764	1.368194297446876e-05	0.1196441849834103	0.0828570967867053
0.009204770646506946	0.04075408347168492	0.08955889119876298	0.1031045047082448
0.02289403252683563	0.1224320203662718	0.0231250512629292	0.04608728900344249
0.001401338866683065	0.05728133913728859	0.0248268885597804	-0.00442860072003243
0.008158671173052027	0.02190600358091606	0.001711180346759077	-0.0942852031650889
0.01593262463199459	0.05559628963965094	-0.003616743163285926	-0.1321260222488853
0.01610011070138732	0.07954613897000326	-0.01088553984072644	-0.1574192523696192
0.008685938480168597	0.1126627642553015	0.054412202937088	-0.1097191887527334
0.008173999639376971	0.1097233541978736	0.01347002912603817	0.05312506164026895
-0.009179389110421141	0.03828897199379658	-0.008100455620502574	0.1328661198206887
-0.01227709925446517	-0.02016760938215613	-0.02322341491706724	0.1071335454293117
-0.02626698425954112	-0.04650371003528706	-0.02132416150983039	0.1051891392300371
-0.02125301382627413	-0.05005015302201701	-0.01311278785206128	0.03385805337654927
-0.01336854791414557	-0.01383325983294511	-0.01256359373687139	-0.06752451285610186
0.005349238115961104	0.02019118326889642	-0.0002917171804353507	-0.04615800887440544
0.008472086876185368	-0.00137150919095669	0.007863506383036439	-0.07544765158734101
0.01398377391203493	-0.009343712145645814	-0.02702141322183014	-0.1585115920249442
0.01850583173461813	-0.02308337731594606	-0.07361003400934039	-0.1758595339972417
0.02909114165316205	-0.04522158387958359	-0.08778501157742011	-0.1055943030633436
0.01064505499002314	-0.04903309665274381	-0.08326751058453979	-0.08777858160635403
0.01374559089522733	-0.03340329098985712	-0.04747286159971421	-0.03273064248637016
0.009957287129566004	-0.01868938001376855	-0.01503230696357366	-0.02173677512452699
0.01936030705776777	0.002078563356275491	-0.009153389465285223	-0.007044643586074289
0.02485794809612863	0.0126135382150606	0.02286699356112177	0.01158070082322057
-0.01490839090744931	-0.003222633909819902	0.02302186569909848	0.02613374959130893
-0.07066418548526465	-0.1261680136910818	-0.002188558095739941	0.02010524312484101
-0.04755656115317209	-0.0846808490184848	0.01443441501920791	0.0106414774627792
-0.02704848168477249	-0.02432742559090998	0.02271566913277769	0.008054174633454179
-0.02456844410361459	0.003575071968176447	0.01780639677237182	0.01624859244945686
-0.01561167100457915	-0.02906572870700316	0.01199462055968253	0.02020171699053105
-0.01343169706273638	0.008457863683174385	0.0094745801644604	0.04583851595683163
-0.008956346664390305	-0.01328702684972143	-0.02326172614254881	0.1308336957068592
0.009858505360010273	0.01168722072194726	-0.03438775997373468	0.1433852674274393
0.01698653332554465	0.06879314481203874	-0.007328819047919748	0.04542742532696551
0.007566083268799189	0.07222041259604767	0.02268020630658694	0.04268141064606002
0.01711082013973008	0.09112380517193368	0.01877111277554074	0.0210864551414162
0.01596639447187546	0.08263148705389582	0.02266036472565108	0.01668051028778848
-0.005472786058821647	0.005220852004130132	0.06428749893770505	0.01493002728089897
-0.01890375431863618	-0.05749880109399929	0.1034549732647266	0.009014864186832505
-0.02138940871049818	-0.07201667477201829	0.03651802381934582	-0.006911872906308158
-0.02340553119957163	-0.07800397604618448	0.00010561656725739	-0.01115675436161545
-0.01429957025640497	-0.04308115868914628	-0.04052569715346675	-0.02190777916337798
-0.01330138147396898	-0.02149102886280529	-0.06048837156348278	-0.0114398449022174
0.01173138351630719	0.02902278754708357	-0.014602802906406	-0.00349488553685919
0.02753668333646829	0.04705540132393808	0.0006346460255524087	0.0127697909529681
0.03697004576837697	0.05679614748542825	0.005731191570741694	0.03395317129109469
0.02509406254399544	0.02181046391708374	0.08806488316260297	0.04472444271698685
0.01393335860821287	-0.006071418279919545	0.1241898724248959	0.03537263043182111
0.02021982376779507	-0.02608507227822652	0.05646015746206875	0.02734446303640136
-0.002679311622210417	-0.03098421667241977	-0.002848977755676216	0.03133074121575891
-0.01716512347959448	-0.01457646406736155	-0.0428669792598321	0.03589598368317435
0.003127249260565791	0.05089893579160581	-0.09634767898856675	0.009315577984333846
-0.008847076185047178	0.1099838930051573	-0.09007970203593429	-0.007824393167280924
0.005676289533547234	0.08186163556765744	0.0458602198737997	-0.02446326971274433
0.01055466539580586	0.01456133969161981	0.07204674492324346	-0.04224551762765296
0.001316422829998903	-0.01983536085066133	0.06979385679541232	-0.0371992872861076
-0.008212153466994858	-0.03370097959527638	0.07362630931463209	-0.01371811190403688
-0.006761177768936609	-0.02741670169359406	0.04810149068104151	0.004856042623825051
-0.02382794622716878	-0.02457746242743927	-0.008198552006269863	0.06242663403387115
-0.0465877515056301	-0.06851184524851496	-0.03625426596895505	0.02236116179526597
-0.0491787721165081	-0.07808414195969533	-0.05034637517156163	-0.008280351887871368
-0.01845666635905403	-0.04277911669730555	-0.06361354972027046	-0.01499030768694569
0.01148758626388819	0.006931159641277729	-0.07097341375125943	-0.01304651732816262
0.02472918517870111	0.005430847239481128	-0.06869208322196725	0.02237593697496278
0.01582104446069282	-0.01866329253829908	-0.0203649824668049	0.04495222484777213
0.01379392753809652	0.008248742507419594	0.03405310495326297	0.04183488762498108
0.02064321963769843	-0.01043124442180823	0.03981949775395285	0.1151725043615437
0.02410225196906148	0.01932876310432527	0.01082383286307704	0.1200204409867238
0.03544607873655072	0.06225677954962659	0.002939800716911047	0.09387252163247309
0.03110633170717654	0.02032442837322662	0.004237455699004304	0.0007925801708802927
0.006632767378939705	-0.03546693710792979	0.0005270964500397702	-0.1590161937072285
0.004473038585460131	-0.1089946185364197	0.0168029756842161	-0.1955233769256863
-0.0001738595069662215	-0.1372196105966444	0.007854674971213857	-0.1768727568120023
-0.006818401468061702	-0.1075649835995059	-0.02717995425651275	-0.1628643597486128
0.003598992122771217	-0.04849785577119396	-0.01307451977327874	-0.124226920099395
0.02149272402074439	0.1012956738813088	-0.0351988228505465	-0.002647542655389775
0.03197350524849257	0.1827700594680069	-0.0541756464134576	0.03321664753758399
0.02663120167343186	0.1576207579898391	-0.03420235797898223	-0.02990232682833389
0.02087990778938875	0.1539083292570852	-0.03519494869579765	0.005139403287028977
0.01804800429221982	0.05757569244289448	-0.03395259135396841	0.02777404628059303
0.02069043441655395	0.01449785362496463	-0.02059082709424097	-0.01424968205308504
0.01458241121019656	0.001445232190360637	-0.03010985363766578	-0.01338392309866921
0.01518175847820761	-0.005154148912044972	-0.06290614566951126	-0.00879080620796097
0.008029188275065983	0.009608546533532904	-0.04232309639907798	-0.02255092505519339
0.00294814719155017	0.007895109869997686	-0.01751000087620939	0.004750178762046543
-0.006028819194968286	0.03694879449569009	0.0006503148386528909	0.06072031088862374
-0.004905721218747995	0.03307750600612076	-0.001730992595753893	0.02532727330875767
-0.03689567455182151	-0.0381336363455814	0.06467238234827191	-0.004807518060022417
-0.04476464623537033	-0.05245549680159382	0.06470195382807672	0.001275961463195064
-0.03195213128460492	-0.03917975365905646	0.007692633243098165	-0.01540562923955893
-0.02604415621794503	-0.06678816825737041	-0.01666875933502093	-0.01918691237886795
-0.01928148607078656	-0.06222097645347679	-0.004847343361848841	-0.020941690034059
-0.03347492021757684	-0.02414245235908593	0.05266451426077066	0.02040932847573952
-0.03151894441824778	0.01506558212499155	0.06291794903492143	0.07668359958244247
-0.03252851304216382	-0.02541752921265389	0.06205326763349735	0.1475058740373963
-0.014309546601788	-0.04950741746917876	0.04775158270057009	0.1029202019154013
0.0005256183752925109	-0.06893449474740185	0.02199639266004239	0.04050882792421363
-0.0006866812460591922	-0.06907747408020755	-0.01988651842210054	0.003430601180690198
-0.02146314147630461	-0.04275385549973489	-0.04910008989064839	-0.003306395859298161
-0.02483137735737633	0.02086357364506392	-0.06557367801513488	0.001717713344886347
-0.005802864212118997	0.06667785449555724	-0.03706873886641412	0.01680846449388141
0.02440480604692577	0.06871875011751404	0.003925583047729477	-0.05030432384240822
0.03536527678089275	0.07807708624997148	-0.001409183526006132	-0.1063863243413969
0.03552778796188921	0.08143883204515059	-0.02056989172910697	-0.121722824887947
0.02825677382060886	-0.02048832038593718	0.00942117337998059	-0.07579796778812405
0.0268664270695295	-0.04071564307436204	0.08717068532355265	-0.02902737718882451
0.0176998339591412	-0.05195222364272232	0.05237268208578307	-0.01205623110828314
0.003882980793827236	-0.05637708853640652	0.01463967691644334	0.007415473646955105
0.008866130452309847	-0.04254925015274068	0.01536587434822921	0.02028251057826794
0.0008228190372196895	-0.01532523787177728	0.01927857526254474	0.02270054832331437
7.513595883180335e-05	0.05353238451148106	0.009010113552216687	-0.05056004580425177
-0.02026137069164934	0.03373318886526908	-0.03551248236079263	-0.064721025332992
-0.03777114601553692	0.02734871654385177	-0.03839812067560402	-0.01617618894166551
-0.01028684636446256	0.04250790515726749	-0.0378783803494606	0.01023549133646304
0.00923903496931584	0.04857562691204012	-0.05199457038559275	0.02261010286139994
0.03047896368318396	0.05941404535642197	-0.0472830375876853	0.03666890469411471
0.03550834945787505	0.01329702727887404	0.01804993610841814	0.1124768779201515
0.03410911240772135	-0.01167605748673983	0.03289181663546036	0.174639802426682
0.02051056587511831	-0.01747823322842633	0.002221579815158903	0.1320472226920272
-0.000845248440563271	-0.01767038451001086	-0.004880885683085599	0.1000385604521664
-0.03020400919872939	-0.01403188938358544	-0.01379146315057249	-0.01681368985005549
-0.02596274264692775	0.01783297517781657	-0.000947593122565587	-0.08024693299717287
-0.04597135084171719	0.004864218357611329	0.08299172450825452	-0.1655018930765791
-0.04264223386094652	-0.02297799033813147	0.08450371724248311	-0.1215575701897191
-0.03172140402550105	-0.04596655329792665	0.06362448545680882	-0.03631029636980886
-0.04877545316855741	-0.06019356082690094	0.02921878237755337	-0.01425117328243124
-0.04939068867998278	-0.06007620730547061	-0.02000725264864416	-0.01079371597297478
-0.01823452710773534	-0.001553114792411568	-0.01217193075918432	-0.07321614934059348
0.0120621742652864	-0.001952427759343495	0.03296586377964197	-0.07549690867718929
0.01359833752630268	-0.03801714014816431	-0.004052867479814887	-0.03536102967809996
0.01472274390343085	-0.04211642895367686	0.01444745782626307	0.04750431633333953
0.0217314814963388	-0.009022787557401378	0.03801271926741991	-0.008091285027061372
0.02950365368322958	0.03951494238797985	-0.005283919368802049	-0.02922901341047054
0.03131839783658032	0.09948640165962028	0.005144889837957441	-0.002151711965154908
0.02161194584559927	0.0477953378489177	-0.0129053652499944	0.02131741447968145
0.01574991015695863	0.02016830617568591	-0.009674073192941056	0.05952863868183512
0.01455235872178265	-0.002318683508867712	-0.02343144353970787	0.07777601319303409
0.01145675129705832	-0.02459392272778942	-0.03627797213432917	0.1000062556517018
0.005864424325615915	-0.05461875973926178	-0.01154341292525607	-0.01104690094111036
0.002639665273688194	-0.06071753575411319	-0.02981700478012986	-0.01611318918789727
-0.005131299497583565	-0.05825571751416895	-0.02499590531602919	0.02148750503440093
-0.004764410155111969	-0.03318821750765807	-0.00642778581515489	0.03067423781595975
0.00730733952551262	-0.03899670981735511	-0.002314854475127059	0.04732051757249851
0.01607829126118287	-0.04338853805387229	0.009661448048863323	0.05710432732034468
0.01996637537808284	-0.02977827854668286	0.03354293664475068	0.04061120386403345
0.01335183281794915	0.03981555006506304	0.01591337636640754	0.02071047026019156
0.01534633555960575	0.1033642627944741	0.02358267078333955	0.01003695916670988
0.01468463470005833	0.08459175845023631	-0.01108430764063181	0.0157572260208985
0.005494838500209347	0.02827021544353923	-0.05057235027493231	0.03346373320759147
0.004391722899260433	0.04001979891882857	-0.06465974890649315	0.06926675481904777
0.001182783483438763	0.01628414549842454	-0.03566432539640644	0.1885912327876469
-0.01729781242362691	0.02983018497808315	-0.006089597232744582	0.09819630886209553
-0.02174637167521959	0.08449631503889328	-0.001455957583376337	-0.02527196014343651
-0.00901221537532078	0.1124549204254238	0.005378625374726192	-0.08887337922198357
-0.00726638745272423	0.09019805157398282	0.003780467092372247	-0.09202408911471792
0.004798575937576895	0.05255114226336063	-0.01507880515794532	-0.08674759307047288
0.008336279224654304	0.009062628739882558	-0.009693866827910631	-0.0587400351644333
0.009322996124682516	-0.02954273308116409	-0.01022218615083114	-0.01299226115458578
0.006559242888340404	-0.06302776585898584	-0.08071260156380625	-0.0008108031608434239
-0.008063061361561936	-0.0814106761895452	-0.07237995225631023	-0.01116762909728766
-0.009931134491493791	-0.08345686250993849	-0.03161545906006947	-0.01402817249135371
-0.009564798426257851	-0.06531159711793756	-0.007362780465436786	-0.0270826798252949
-0.01527828886971335	-0.06774587790733137	-0.01830556434572304	-0.04411072592950238
-0.009066482231385268	-0.1436213078689891	0.04515545153521477	-0.03062742736262095
0.004364787919161943	-0.1530938818607659	0.04123025437939946	-0.02042449263023132
-0.003714813879475727	-0.1045560430228293	0.03028910887227954	-0.01315665763857477
-0.0397576691786127	-0.03445679976464493	0.05092570642755767	-0.007019815223358223
-0.04713537111990047	0.06822403794848991	0.04060023460848498	-0.007236399789482914
-0.03638342880571283	0.1382141723315355	0.01717671355838904	-0.01534226134870069
-0.003644210286281617	0.2556034596583723	-0.01091930020218137	-0.01518047284067896
0.009609062496746677	0.1584304015905717	-0.0873025907415718	-0.01180982708568119
-0.01035389675089331	0.01766990418572027	-0.126702661682229	-0.01098954501628872
-0.02450214337305683	-0.0444655890230793	-0.1357647850056321	-0.02728941962415256
-0.01178520049265338	-0.0288267648597546	-0.065157197506239	-0.02998353166359966
-0.008763622102034909	-0.006265094036041397	0.09608508938697069	0.01006733244033223
0.01637134577774209	-0.01319493476385468	0.1533344638195217	0.0278376073086932
0.03703336997378751	-0.003508189124114342	0.1045191491012458	0.03354441052816819
0.03098700312617917	0.0378782794590041	0.0797131623110984	0.04691643097667858
0.01914514964957673	0.0212068634297031	0.06503511069709153	0.112285281283666
0.01240229588127844	-0.01440309482734504	0.01377832997901259	0.09035026088855512
0.01447833597175797	-0.03575317505782612	-0.004449920624210637	0.004044071282842573
0.01727210364937292	-0.0126337035013611	-0.02161681718314054	-0.03259227405102884
0.003504542442034485	-0.004253024864494711	-0.03298182140973609	-0.09887885986120099
0.001449279006463269	-0.04680280483202257	0.008244665900228706	-0.103257641534081
-0.004387592150646199	-0.02811543376471079	0.02612762378207926	-0.0266524459831855
-0.01401715782340177	-0.003044033003436468	0.0256961727823413	0.01508397883892227
0.006161159659223825	-0.01974869416617664	0.06364650257336929	0.0408465369776471
0.01082530687323119	-0.01069468089140865	0.05419321166379355	-0.004208422746791528
-0.004051962382546194	0.03002835608375024	0.02672165595965804	-0.060658213760764
0.002522730056070802	-0.03677079773322123	0.0006245251913922777	-0.04754341988960439
0.005176034591364698	-0.04573938182016629	0.001866884860366587	-0.03473572348765384
0.00453873380601653	-0.04246905111078188	-0.00438697521788335	-0.08478675366552679
-0.003364225463651618	-0.02593749593868151	-0.0332960595301141	-0.08483760035383953
0.005476976641040501	-0.02359634162843443	-0.03115924532796958	-0.08834381195661542
-0.00372542836042985	-0.0154883776079034	-0.03225215479894003	-0.08901531718030203
0.0003700468937393788	0.0009617119441146495	-0.03357261049341508	-0.04013769058939851
0.004114398321504415	0.05075432889722156	-0.04387476544913487	0.03655969322124208
-0.007125724398672205	0.09162097452809853	-0.04830078889405176	0.1504653217787443
-0.03405764658696382	0.06460721521581976	-0.05826026102452898	0.05199840268590964
-0.02761204998717106	0.03405380913847141	-0.03674784821560033	0.04367642902677352
-0.005920686444328943	0.01915111506583288	0.01081070637230962	0.08730624938579043
0.008843143999407771	0.007380620151392991	0.03087855249663665	0.02125480601429289
0.02434481408076852	-0.001157973279621075	0.01820303770997833	0.02186094250021463
0.03367984798326	-0.007605270488903108	0.04656569923040606	0.05157568669728445
0.03580366090489211	-0.01343057344424612	0.007575711914215679	0.000699810939061879
0.03155460305268423	-0.02947397310701888	-0.03340039032589633	-0.0650852829334677
0.01963949266496423	-0.02173463259959458	-0.0283033200673893	-0.01593833727665593
0.007853369918376922	-0.01116607816018074	0.02076241196650279	0.0122601178749522
0.000120430342541238	-0.00641660647653084	0.01353990484535919	0.01184723314361364
-0.01146684882978517	-0.03655890604614163	-0.02094409019952666	0.005847604558718076
-0.04501143983983635	-0.04209035434841898	-0.04974618704451644	0.004431676646016603
-0.05551270205291469	-0.04584126590101708	-0.005365130087510221	0.01541349498535427
-0.04825637868091492	-0.0425064713575805	0.0119735895308763	0.0008242613553680519
-0.02308400139461647	-0.02720194183704646	0.06030836998015061	-0.004449882392431427
0.0001991396517207798	-0.02292423643339325	0.04175021948604837	-0.007701388921482444
0.01043358589983258	-0.03920366689323793	0.04369018511544187	-0.002893923242186861
0.01095234622530411	-0.006368879251655657	0.03756907544901484	0.02177183605361144
0.009992841928422102	0.02658419517508008	0.04629891648302019	0.05881106902407302
0.01441873645607165	0.09305476630787743	0.05547618317058325	0.05565875447194685
0.01856600533423196	0.08493791551572902	0.04381689667843568	0.02979423874419151
0.02672944500769489	0.1259432827540596	0.02779915500078107	0.01236932566108963
0.005664620838582345	0.10608565428053	-0.002913742702980835	0.01176506237307218
-0.01052049315419016	0.06870144875969614	-0.05077815573120298	-0.03795439540909835
-0.002535124843618326	0.0168580935431569	-0.1063261939401135	-0.05159263702881986
0.01481177588398019	-0.02288144773271474	-0.09566677104676816	-0.01444769404917728
0.01447999855062531	-0.03211923896080367	-0.04348083856652844	0.01471419715954099
0.006236015854250936	-0.06013013886797038	0.01981121400520413	0.04166772053112047
-5.923415446011648e-06	-0.0921802891891975	0.01961277053137226	0.1026347892304556
-0.002785435294434663	-0.05770621608570693	-0.0006500571208442057	0.156666015895824
0.006788628899929101	-0.02777306180294158	0.04456454798398381	-0.0666139447323765
0.008768399741722164	-0.0105924786434722	0.06762373834217396	0.01525702104894944
0.001523479120248235	-0.007005492112055986	0.02754715999671416	0.034882924853024
-0.007424769002712383	0.01649784760622109	-0.04483581383853138	0.03899408620046613
-0.0008503609215179313	0.05276552969689415	-0.0513963734277841	0.01284242860553082
-0.005894018284926704	-0.01153009037784679	-0.05079330188164462	-0.0562412888460832
0.01605731681381862	-0.02812811337482975	-0.05057087337589797	-0.113234677316887
0.01436262057646986	-0.01629782265198867	-0.02357795702032124	-0.08595725411897152
0.001647953240970387	-0.001503191496277531	0.003049903231166737	0.01215294051794596
0.0177943833524957	0.00573374689017863	-0.004603402957758282	-0.08949298478891117
0.01885360853917455	-0.02811144043974417	0.02617777789065469	-0.09735479967730018
0.02603084482596201	-0.01114238607169391	-0.004951213865339248	-0.02841008154148409
0.008960063079142251	-0.03110766962863571	-0.03034004759763268	0.003053058333120794
-0.02362940820463456	-0.03739628047453456	-0.0366463874335891	-0.001197782956072876
-0.04603348142981375	-0.0212170760088972	-0.05821774961624929	-0.007539706620901978
-0.04284067733010771	0.0200666824322676	-0.02352976167838127	0.003656436048433934
-0.03289809948064517	0.08780089068899576	0.006727865624383641	0.01385628533635628
-0.07689917987045258	0.06544773467094549	-0.005402301201611706	0.0655535457418276
-0.08182042764624044	0.02644178603359341	0.02558627385184122	0.06440794194264529
-0.02605269740624783	0.01535527154741794	-0.007681425840479712	0.02124255939528608
0.01422073346268001	0.01325382000210283	-0.0195788412658107	0.02965747392325184
0.01355448300875714	0.002607669087866501	0.03201629295381404	0.01862410965025831
0.01215857809124136	-0.02046986192927147	0.1160312341718423	0.01793515248985535
0.02139284771430321	-0.02956770692658027	0.02729635306182849	0.001563676699553279
0.01965735948939619	-0.0200926449862071	0.007605742438021563	-0.02146213149260051
0.02730241845932907	0.00957854206463902	0.06011907453593139	-0.01635746790729483
0.02986270734650993	0.01469774349984346	0.04800491407206071	-0.01676808565607271
0.02544843030830517	0.03688741896352796	0.01574714271517369	-0.02977086584782712
0.01282416077511066	0.08210514470300512	-0.02422319602150547	0.01875208263857133
0.002865216985996631	0.08050954132863233	-0.002728437197252361	0.05654192726897148
-0.01169138138652534	0.02014206930742587	0.0008047901555928579	0.09837959697248885
-0.008584924971064969	-0.03274293590254295	0.01289737615929354	0.06353359340612995
-0.01274751460512109	-0.05666895727399952	-0.02659302620429247	-0.1024325612795301
-0.009401140184959644	-0.08575020679093909	-0.009571279033508663	-0.07773566509024891
-0.005105532739307807	-0.1160896617407953	0.0009424324782711698	-0.04002794599126672
0.006629069781003297	-0.08842550267918674	0.01110702176283484	-0.008288502825265241
0.01727000901280434	-0.0206596548016317	0.0668060640570186	-0.01539126360352431
0.02029662002604158	0.05197801330083762	0.06242314996771604	-0.001670026062223622
0.0264991089501487	0.0717419937204631	0.02044450106051863	0.007562802214945595
0.01558754858155465	0.06133240532807704	-0.0399826483144551	-0.008502295685160553
0.02229222573847848	0.02347059275735029	-0.07136035369307907	0.05710677201660705
0.01946687738537894	0.01413347036590741	-0.06905693543580095	0.0819541893433932
0.01743693591925599	0.04163971568357838	-0.05575035231932988	0.06642499494682218
0.03069673692432566	0.09439134214681523	-0.05164669105493308	0.01562967326776251
0.02228202798578765	0.05590310689515784	-0.0002016428198262694	-0.0349406368829924
0.01744315839276332	0.009070047202561687	-0.02387385636170685	-0.1198252533199342
-0.006220131647292875	-0.03751442016365955	-0.02744118384532076	-0.1227195497483066
-0.01651381115686522	-0.0705737685901061	-0.004203967399419319	-0.1189395455146997
-0.01245865553392358	-0.07763722118901077	0.03119977371634443	-0.03407699341795466
-0.03121299788730171	-0.08104986608588564	0.07031269906816469	-0.03015834521692395
-0.009116623148506335	-0.05691755973940579	0.02107529324478358	-0.02181260983876165
0.01292662644024391	-0.003667913807831161	0.002030243147842256	-0.02511055908804308
0.01008834421630554	0.03126058454248004	0.01617118843280903	-0.04602512618357688
-0.003187689676903568	0.02672549911461962	0.02502028927162768	-0.045547516533027
-0.006138813139669807	0.008026304282532455	0.06992905627174845	0.0003864734478166365
-0.01260272528091223	-0.03786301911438505	0.09989476112515079	0.008553699528237426
-0.02501218726434987	-0.05162705788939526	0.03626643068894093	0.06264167017475042
-0.008148959653359582	-0.04232875572172588	-0.01622800394040773	0.07730622301271757
-0.01066852927496509	0.003817698687995706	-0.02205209792733018	0.0120273446018422
-0.02352375813208006	0.02617538928531182	-0.05595560143303745	-0.008427686570590969
-0.03582319066592077	0.01725628319251674	-0.05621704984405423	-0.006747761542189132
-0.03714925030340735	0.003903117720634007	-0.03966313022514609	-0.01754243737543329
-0.02850734677665323	0.007823229185666596	-0.009795865170530471	0.02118309587733711
-0.0173643961197185	0.02658195895482202	-0.002938883391753304	0.09494700981372854
-0.02920106949647883	-0.001983066687582338	-0.03785127888993923	0.2159504735187214
-0.01985786586971937	-0.007620044252758112	-0.01920532506778629	0.1150578735708121
-0.01363308082728602	-0.02127845797689764	-0.03774844200969207	-0.01748383630654518
-0.01194523672938362	-0.07446050644474156	-0.03456241757907148	-0.08274941054758553
-0.01310420273613204	-0.08036075595377416	-0.03557176766116652	-0.1463694486493876
0.01714587493874305	-0.03120465888007226	-0.03239939807437111	-0.1264265167808427
0.02733242486818909	0.01203751864456817	-0.05876344011614711	-0.01229352237067485
0.03094138573803032	0.01084904323121615	0.02518005818888351	0.06112464300918006
0.02873294953636512	0.05162317841755341	0.08319366523016059	0.0909923947990332
0.0151898823645448	0.09564746914548503	0.04436363441176544	0.03322695264282351
0.009729387430950318	0.05568928390292546	0.01890935885616599	-0.04677233856533753
0.01784162825857288	0.007861175857418986	0.0006988928903592164	-0.04128160233241892
0.01816574495498664	0.01189273582431773	-0.003422698617987698	-0.02330821452974179
0.002980181464615261	0.02933663931168148	0.02322694121241745	-0.00125924488117024
-0.01516024365777117	0.05187308347401645	0.01840641481865802	-0.006451789893507417
-0.00102673326214284	0.04086347750633732	0.01202356302533964	-0.03299966297831475
-0.01637984528108918	0.03202363786193956	0.02930123673125622	-0.05473461481867249
-0.01914803131357834	-0.003520702610939589	-0.004923181629845745	-0.06378878965693406
0.00496349839338293	-0.03047756881229523	-0.04010349039544865	-0.01420781759577945
0.02405172482585826	-0.03082945104081498	-0.02727502989236267	0.06766715080529362
0.01450776315483301	-0.02040917249518266	-0.0338188353599066	0.1293676064827785
0.009117988096518368	-0.03629287699889004	0.01088872748905675	0.07799428959160233
0.005239218487809462	-0.04541651347966072	0.008526664613333337	0.02380970958943865
0.01607065714564766	-0.008416535552781188	0.0002355733290912966	-0.01197124987690058
0.02024017910813349	0.01156082197202102	-0.01381267817222917	-0.03678876046838562
0.02256434273990801	0.06366354511600922	0.04672779734377979	-0.01947185354063058
0.01767008242325588	0.08246056801107234	0.09493370543766767	0.005886971686002009
-0.021646129598237	0.006227390998934853	0.09094871690288796	0.008712929960810497
0.02719587754499129	0.02944369612358816	0.0239012618630184	0.04433100968479669
0.02723538338651507	0.04606936962731485	-0.01250132551483435	0.05344237588089353
0.002828481851182916	0.01819000023753028	0.009981343646198569	0.06373498494467715
-0.002863692875868256	0.001232214132377706	-0.003944287360222921	0.04432493132315998
0.002036068383990389	0.009424332498302287	-0.0137698136525218	0.02923325481714887
0.0110512972120266	-0.05074944637614488	-0.03769589915526789	-0.02304688114599699
0.005626292755598524	-0.08748650897897363	-0.05591238898648247	-0.02917390492421547
0.01139317255372533	-0.06667145227537796	-0.04847100567077799	-0.03019199744378788
0.006946763983401421	-0.05637962486867851	-0.0002005430983289057	-0.007703231945941524
0.0007639373469108875	-0.04397495293892072	-0.01048487096602852	-0.000328011247606901
-0.01383162271897092	-0.02988986139076851	-0.01235354180676559	-0.005407219855705929
-0.02362058940702462	-0.01101472387119622	-0.02624133859905573	-0.01767349767866173
-0.009900114557281361	0.02591327278375363	-0.03787769807312887	-0.02360309752905806
-0.003081784171864003	0.02777029145917775	-0.03008761270821881	-0.02591162689502443
-0.0268357803331169	0.004894742751373289	0.02371242238617369	0.05171753862178863
-0.01511979542398112	0.004427618344772746	0.06604221103093551	0.05366392249668822
-0.00477549360453271	0.01421492615920347	0.03037826593394747	0.03891728120870177
-0.0008689373241927538	0.01439305620333492	0.002700557327308666	0.03338266433856643
-0.005553488885407458	0.01686038909625241	0.01771440198138164	-0.05512490790670864
-0.02248438349053638	0.002513827001453485	-0.0023911116031209	-0.0880123695154298
-0.04560220365995565	-0.06443915675646966	-0.007281608150914692	-0.06564942956006443
-0.04682827591141438	-0.07861165496545372	-0.05249971150620734	-0.02079359851003133
-0.04063099666238541	-0.06598328631104312	-0.05941259505607193	-0.02116457975531086
-0.03144539289722061	-0.05618903552534961	-0.01786987360126478	-0.06118200404685518
-0.01845313049682315	-0.02344579963485271	-0.017723475531886	-0.04533492056672572
-0.01517696824263009	0.0396625468620905	-0.0049935038072155	-0.005500486209142385
-0.00209304318886149	0.004668208883718253	-0.005918185936353102	0.01130557660242787
0.001985457923835291	-0.02050683066221738	-0.003140008330494488	0.05422643312168231
0.006884029543637329	0.00551497928224128	-0.004188474494645004	0.1264037732100096
0.01405489675817043	0.03421226940071296	-0.02239648549924656	0.04094312260928507
0.02086235527349137	0.07963900169219308	0.02774172279619264	-0.01564269118919672
0.03116849284492614	0.1075112216095791	0.07345623623074267	-0.02391061868672836
0.03324456332143379	0.07931668777886532	0.04363160392014057	-0.01102824180146338
0.02827441252083621	0.0563974453051621	0.02569724627335864	0.07580857692433646
0.02869471563388729	0.05149300477134259	0.03113863358980246	0.06865839296443943
0.02810317738206625	-0.006286648330859809	-0.01312035283489558	0.01789248803272602
0.03056471209270181	-0.06069521860926164	-0.04953411177430995	-0.04954967531397579
0.02504754435864879	-0.06918020244736729	-0.07205147726117232	-0.1249843849518626
0.004113742141651017	-0.04024941283768375	-0.07210930748658829	-0.1632698146017758
-0.007633740900878219	-0.02149077943878409	-0.03758392529400922	-0.09081887538540299
-0.00375526492762093	-0.02057360961469093	0.03297474028389388	-0.03281883087246848
0.004628788467083637	0.002726313664446454	0.09233400949032704	0.1515341113460467
-0.003270536394620124	0.04321363636714294	0.0317435476901279	0.05684958949058214
0.008548466398804896	0.0265338152453206	-0.05493552052560154	0.0143227763893691
0.01890117817709314	0.03696544347469151	-0.0662775751348868	0.07662441249064174
-0.01757573417899765	0.0667603829447921	-0.01156155045339658	0.0673116944253961
-0.03700743324919048	0.01797076311033667	0.05775574523868491	0.03026865964371199
0.006026565011579958	0.02261642009106688	0.08134209600340166	0.01009414988923863
0.0188021541555032	0.0422136456429931	0.1361629277139479	-0.03454313422795606
-0.01186412510023733	0.02940273375398274	0.08243223324643754	-0.1187197937663637
-0.01867739068568997	-0.006328124814262436	0.02747420889390627	-0.09984210123345809
-0.004012531654902131	-0.01246615446800983	0.007079796528718802	-0.03216485521071324
0.009397363015989851	0.005638655015220632	-0.004354926340327202	-0.01769709334279902
0.01233324418835366	0.0073432593716732	-0.04205011106970546	0.001134998609108471
-0.005596094385814621	-0.05067723689570759	-0.02832892468340794	0.01549244892373063
-0.01169292098016585	-0.05892029200221056	-0.003255673770347066	0.07652133144000667
-0.014492815065789	-0.03231784626743583	-0.01282094059595533	0.09042430162105211
-0.01007330813579265	-0.04876260448500309	-0.0149094438613799	-0.003006976416152142
-0.004729444144889565	-0.03578279161480344	-0.01008414709273291	-0.07615752338398303
-0.0009044570596826628	-0.006879194484051702	0.00124886190892337	-0.08728773599499222
0.004974833392468259	0.02003326723354501	-0.02628410626460238	-0.04415535522887835
0.0007025251112253277	0.02743298946262839	-0.03088031374597446	-0.006744374843279291
-0.002424746144196328	0.03437485372884498	-0.004075514093997116	0.006591988516920984
0.000759146692125731	0.02614410690264551	0.01692254012564599	-0.003403234464860825
0.007720201027091447	0.02509201019557954	0.002991658438390978	-0.0007817584620169016
0.008029519981941761	0.02073963529636394	-0.03748828173142421	-0.007275224400090115
0.01018596383776407	0.02026210980050594	-0.03150709697612577	0.0004211823913580316
0.02137146161088163	0.01929420312355419	0.002583088727580027	0.003389659066033415
0.03063335898514532	0.02392876945512417	-0.04386887815654494	0.01083077409595429
0.01595256402958213	0.008975645242461272	-0.04038897454754414	-0.002922756039647723
0.003903864003072765	-0.01812210758167826	0.01479778858558226	0.01672944864590644
0.001941278373386957	-0.05710887352804074	0.004690050323023635	0.03485898510554407
-0.002110184189318244	-0.07138561015669539	-0.004557412497564605	0.04691466836991389
-0.007972697943614077	-0.08387894500493322	0.06958356441283287	0.04354403512007637
-0.01159276259604732	-0.07967750031510418	0.06013566620843086	0.08447816990712749
-0.003773757252536012	-0.07301050230309136	0.01837537697834086	0.09339922808233772
0.005887137069036316	-0.05741193815521226	-0.01793699131440471	0.07915401255073518
0.02939912158418226	-0.005988256253515472	-0.03126051196715338	0.03776519570149595
0.0266099425238106	-0.02074131156166522	-0.0233747610346985	-0.003620887155807558
0.01240734214230641	-0.02753669000861729	-0.0004837774732036765	-0.07970005489831404
0.005852113505888121	-0.006189003101977571	0.01095979986476357	-0.08123982828626147
-0.003152914660062999	-0.02542364546351123	-0.0009610004807995213	-0.07867686765005545
0.001238181554616385	-0.01558211156129118	-0.01712285672205612	-0.06600993045016776
-0.002154347405204693	0.005209515634206874	-0.03212911143957579	-0.03950419339561966
-0.01859135136291232	0.03845611627670813	0.01334027326444271	0.03140475465468517
-0.0406227144200277	0.05063220922258257	0.005306733675481643	0.05122690078859416
-0.05206367751092249	0.06269994892962805	0.01321856972317273	0.03278440349770853
-0.03603399400670706	0.1189629147927899	-0.003894358808398397	0.002495038693264735
-0.03387822055209273	0.0871693817215857	-0.01491785578243648	-0.0367471616068567
-0.04356273533540442	0.03028512625719188	0.03012366473234191	-0.06007129030823112
-0.02224887532095173	0.000150485839467625	0.02617616033664424	-0.05165931400803105
-0.008724768599491155	-0.02541909626836419	0.009153869707285827	-0.03044365575973882
-0.01357169885455494	-0.01828070132018561	0.01184921783008778	0.02896706627842823
-0.04316778415325828	-0.03697758671771498	0.02661803314775674	0.04775319635999477
-0.02216929975073619	-0.03261210350664175	-0.010436884557128	0.01872523365606613
0.001046460868829573	-0.01638953133937474	-0.03502272006859018	0.01119901682985698
0.01053710436284165	0.0246605413089102	-0.05137522791639773	0.01628773045120909
0.01291564343213033	0.06147456864891669	-0.05282369964597742	0.02836900637963483
0.02079635833128294	0.1123127800415265	-0.01827842204985727	0.03207147756648264
0.02548780090721862	0.1487443483424237	-0.006884655281748841	0.02168171065819016
0.02898122948324115	0.0950558208110403	-0.03341245709366848	0.01632142900413101
0.02485681828601991	0.03650699595241086	-0.04390265937852336	-0.02075151180337195
0.02180283154512351	-0.001366937771448604	-0.008060403795170226	-0.05550977960699965
0.0224411234629558	-0.01213310777844323	-0.03031677599717785	-0.009410013337295676
0.01445978172789176	-0.01890706369923352	0.006089236420126706	0.1353435465075033
-0.0012103672937312	-0.03598712014280576	0.04986349669214026	0.1366402407243346
-0.00626688542933094	-0.0327525273630145	0.0329768756778883	0.1502227872728696
-0.003407719602649582	-0.07721610159249803	0.01576116052645771	0.0231681184304007
-0.004371884374015207	-0.09874237234498597	0.0004798475442402428	-0.2171604363764477
-0.002996713073656109	-0.1124780191559164	0.008175540484135426	-0.2336498737436022
-0.01000734654168657	-0.09784766602744792	0.03298070966949369	-0.1546229834836712
-0.01378017460012773	-0.07770697576373468	0.04013453048713539	-0.05323730411351143
-0.01896327298602656	-0.05427345717614634	0.03895070268068055	0.06578426078926231
-0.007576611916391525	-0.03871401913121109	0.02489575948163477	0.03711790069143797
0.003797080990625112	-0.008188924919428985	0.0001728582735893441	0.002635698267383022
0.005598177925849239	0.005728367220354926	-0.009301500851710729	-0.01910785080715768
0.01938580830163633	0.04115709198444015	0.01683195153635158	0.005640881468987434
0.04763864314798451	0.08354395671137207	0.02398775199961371	0.03327204963933448
0.05531621777711049	0.08270509646570469	-0.02222965524801691	0.03711849596590611
0.04183317175217031	0.06953698194481321	-0.03517657923255452	0.03009772205161663
0.04350238311215374	0.07940776480558931	-0.05589134841551507	-0.01920388562582968
0.02481939151955525	0.03595431183130912	-0.0214472655508839	-0.04073701939130636
-0.003221833266890758	-0.02941696774773556	-0.03531455687280621	-0.03656896933541429
-0.01019120400359562	-0.06359214523128223	0.02733778934946653	-0.02703308946747911
-0.005425532744424888	-0.05504466061886117	0.04400767875555937	-0.01003068347092648
-0.009277263476423825	-0.03932274460202381	-0.01383617393770276	0.02839765002272814
-0.05282424428445207	-0.03389456614087209	-0.03735938501976159	0.0731598148318116
-0.03383192638365311	-0.03534472157342373	-0.04340037423526447	0.02582498456115359
-0.01463122483778004	-0.005667911851406013	-0.04665651535681251	-0.04288619396825369
-0.01959575624509851	0.009865196937508803	-0.01136164851906949	0.05619005386813093
-0.012251664158806	0.02038084471608153	0.06726930373889314	0.07191582933866478
-0.03277674724381559	-0.001752171412099335	0.03295077829489922	0.0003576941436631813
-0.04260205243350079	-0.007880382014550064	0.009404551346809316	-0.01302475338075161
-0.0253713354242487	0.03291882156354958	-0.01895109595960861	0.01300104797399067
-0.006665573334280628	0.0331640111176323	0.05458639820426629	0.001331282662623768
-0.0007376119058665915	0.02383551634654743	0.06182865157797664	-0.009315589517801657
0.005380168929286512	0.01006554880289809	0.06273145815339809	-0.03458597500459546
0.006232777138564745	-0.01330400796166335	0.08157580921725106	-0.02657209437018389
0.007602097855259875	-0.03118085439537256	0.06385796321441825	-0.01909579792932104
0.01017763502122603	-0.02885472163289218	0.02140797663691029	-0.005366318020383793
0.01188121348791699	-0.0265898109124104	0.01886203134257437	0.02415385214314736
0.02251066761006561	0.01505185076390879	-0.02721355609624316	0.05047039412732989
0.0323165457949126	0.0390808511495983	-0.04182797932177188	0.08511466210609446
0.02328129295035494	-0.009325941649552546	0.01135562694596479	0.07730721321676026
0.03208703162021682	-0.04540571453939959	0.0166380437865825	0.04769595570430562
0.04229176669521389	-0.04033225238942668	0.02783245634403261	0.03582997604078902
0.0300020223316635	-0.03391850823051091	-0.0558146984175668	0.09857954515872025
0.01646054971916502	-0.006222190619135624	-0.03498996782399387	0.06920396728297458
0.01945627078585819	0.0335509505980125	-0.02844429457409049	-0.004733590538630294
0.01612193277644419	0.08158353817523865	-0.04295973481489948	-0.0834641937419278
-0.02598573326303198	0.09676001838503898	-0.0368982841745197	-0.1346521778971879
-0.04454595382022847	0.08283321905083889	-0.04158909491948117	-0.128888614234195
-0.03788097169475683	0.05995908068868718	-0.04686669318020845	-0.1064112087910478
-0.06115340213572178	0.05458542414968198	-0.02173073547129484	-0.07262746996972851
-0.06775244091205559	0.01490577789348852	0.01905528430395757	-0.04081154321009153
-0.05014988322293988	-0.02575553531044052	-0.02134185874708413	-0.0181156694579778
-0.03356400981540491	-0.058842766632913	-0.04051789156479351	-0.01192613138839616
-0.02184135135074347	-0.04698449234151059	-0.01347111860256299	-0.007245637900759106
-0.01336932934203179	-0.02971261806734903	-0.002533799382208205	-0.01187199721976516
-0.008576740300218148	-0.05607065420296745	-0.007642353091620926	0.0381858034252671
-0.00692440352187436	-0.05234181243022584	-0.02231057306824532	0.05271154617352191
0.006066110244075378	-0.04770792343464133	-0.04384209047999443	0.0483273675356441
0.0181490163050822	-0.02384336686434869	-0.04953747232026154	0.0282293656726078
0.03309444689517411	0.00683244436681232	0.01274970333388383	-0.04376363457416323
0.03568609272674138	0.03917531130419451	0.08828389526373924	-0.06386037749334061
0.03945149188155753	0.06477508765626182	0.03822130077948139	-0.04927389580599755
0.03811377290191388	0.06228012693523174	0.01536267495610511	-0.01428208437628378
0.03389428355431878	0.05116695570040634	0.02328879907589209	0.0390169017106432
0.03161278426305911	0.02875373790191307	0.06979668553671688	0.04008600805218517
0.03364387408533347	0.02435501140487025	0.05675971208756042	0.03096393928129144
0.02881586446847357	0.005014204463015999	0.0334316454414546	0.006684291674062566
0.008010434114050306	-0.009781840713110652	0.01863169440315832	-0.04239310834766161
0.002740679525724909	0.01404851983852601	0.02329977624838442	-0.06042372920336971
-0.006898113923791458	-0.0201641289308115	-0.004322637326678339	-0.03153970578639242
-0.015613358393111	-0.0287099363571138	-0.009595420301022612	-0.01293084454937859
-0.01102717843432399	-0.06199305398782554	0.0040368056958878	0.01568710683657768
-0.007328093288769635	-0.07693766671954082	-0.005479960273324768	0.01740646299582052
-0.004339401088731939	-0.07618702119187802	-0.02126923682407132	0.01853167601470415
0.001576946336851486	-0.05168040287201922	-0.03070893412622972	0.03038863780939184
0.003878707877688548	-0.0345802310215016	-0.08374956402337445	0.04058525908464985
0.007079164288422694	-0.02240581306055103	-0.07699028891126701	0.03589921884698231
-0.0009307609532990591	-0.01158584085206084	0.07937905210545508	0.014799811908257
0.008561361163398009	0.08472891842100017	0.05949548272940756	-0.004758428640355531
0.01286256364572938	0.08171240370996233	0.001452465157276853	0.02562819158976431
0.01788060758892302	0.06190518145383419	0.002388497272037946	0.07126492161709054
0.01793589628054716	0.04846068516576848	-0.03536141407063471	0.1207304142210913
0.008636023296175651	0.02757941824757647	-0.09534216711885758	0.007961553831294786
-0.001021889406736642	0.01639147396177715	-0.09303224493823592	-0.05674166483384419
-0.009074229471716376	-0.01240578692600452	-0.06708667419838543	-0.05534268780788653
-0.004807444821782199	-0.03099647918795778	-0.03278197607763925	-0.03049837827881773
-0.006192184030064153	-0.06294608730833617	-0.0043864715803256	-0.02625405104607761
-0.01429377787608148	-0.06374721336925589	0.1214945300723608	-0.007999978142247319
-0.007965426400721985	-0.05638575174734425	0.09526509944304684	0.0219116968965653
0.002612140753016498	-0.02824020533997042	0.05680041385339157	0.08290556578038225
0.003570960542656693	-0.02136499860798335	0.03572204660837525	0.06082456381623493
-0.008793624954263602	-0.009367577124100157	0.01999283756010837	0.01352914166586503
-0.02629214881190618	-0.006251081170521735	0.01049855592443171	-0.01065938456134088
-0.03303079456576605	-0.01114187540884393	-0.008022528036813669	0.01264399314624432
-0.03213778503399966	-0.002492200962811379	-0.00770645883570751	0.00783708449566165
-0.008568138407762641	0.03985865517543366	0.005837587734157098	0.02074615269220937
0.01292980239662557	0.07382626994714285	-0.0175292750315026	0.01233380331789096
0.01585301297882945	0.1028596462699323	-0.05152130687387508	-0.02336544744416781
0.01569132833467252	0.09061105565604301	-0.05238584241350478	-0.05856172435786035
0.01004996091518268	0.05106210401851213	-0.05517698901605297	-0.09883919857441396
0.01107387457005428	0.0394511858658806	-0.05528949118849194	-0.05849137378666364
-0.004433252448159472	0.01419797333858841	-0.02760797026924655	-0.05205859815643987
-0.02229893422655565	-0.03369046923853076	0.03130920777506768	-0.07357731730156232
-0.06451673108724425	-0.0547378699933424	0.1140001288990896	-0.04434496592740216
-0.0815360368355674	-0.09053682786169576	0.06740506869178822	0.001342617089285502
-0.05721418844562983	-0.08784107019121543	-0.003245134294774545	0.04669349593707001
-0.01794533685817354	-0.09439383153191833	0.02127857831721282	0.06017208381230515
0.01646164049150139	-0.07600108516965752	-0.01578119426307023	0.04465215718433489
0.02937185655824671	-0.05171262662772905	-0.02715604177924614	0.008567576361340527
0.0326159139533633	0.006082743683191012	-0.02777905507141276	0.01151912304103344
0.04880314682351876	0.04174108702252979	-0.02124779311012805	0.003885240073463109
0.04959561675492775	0.070035649297612	-0.01201983692149093	-0.01195504711084313
0.04191361506078594	0.08109099350379768	-0.01702873299700663	-0.01516158192566094
0.03056330380851867	0.05644571795245727	0.008139022809985429	-0.05613643498799346
0.02068700338042566	0.02928351128332543	0.06795276992045034	-0.0675708307168565
0.007438251168710038	0.02477625090666379	0.05574507996293088	-0.06129410105616208
-0.01586672556328976	0.02780028188361903	-0.02774500725793189	-0.03850783893952518
-0.03639464487327611	0.03975130307890788	-0.01042101527177716	0.005447124993650933
-0.04560173387668848	0.09729329311195961	0.008708949903191843	0.06746005145842481
-0.06627158547221222	0.08145945902310604	-0.05854399925597834	0.04228468383416436
-0.06788292787703	-0.03050939636279539	-0.09935193993759829	0.02060836660079945
-0.04122248464566904	-0.08563103641802637	-0.04027168640407031	0.003600202171881635
-0.03046075672417066	-0.103276478930514	-0.0365633377053292	-0.05849706505926141
-0.03614395522169513	-0.07033666792430901	-0.06669313550868204	-0.07275443193851042
-0.03115102237314477	-0.0488073658194557	-0.07638353239138558	-0.04347188008701508
-0.01818468262077745	-0.02141383596767372	0.02905716660415952	0.04953831448385132
-0.0133242101400374	-0.001468225256472935	0.03718405574522522	0.07091560597106686
-0.0008274628230590159	-0.0073732878830432	-0.02710389478760744	0.02366115794609934
0.01422150914084942	-0.009693681790525432	-0.01427983453192328	0.02671151847949721
0.02891323189896504	0.009898841410778575	0.1047172069169039	0.04274954180620825
0.03013266204613663	0.0217395129274599	0.148757933082667	0.04076294240282195
0.04089278860097819	0.04761084770348791	0.1451511110947656	0.02875656030610009
0.03171296334202905	0.0125142921975348	0.1485096524637597	-0.01520174757072602
0.04101547749308664	-0.01477990147537739	0.1001916840045143	-0.02743362821366943
0.04570782030582538	-0.0004180979031448999	0.06753530804847388	0.05028686913084453
0.03214980185366299	-0.006833809272224934	0.01693667107750635	0.08449947721415127
0.01329031265525577	-0.02421415886951842	-0.05590874738870064	0.0235470282320581
0.009268598903636936	-0.05019503953323452	-0.1277155995358353	0.01924396473021026
0.008543081392604906	-0.03943460830547146	-0.07430791402459966	0.02272643954977708
0.01444577141921353	-0.006269037557591622	-0.07071110967053744	0.04921450423185947
0.02402487025629767	0.05575988168961795	-0.04553706929902507	0.04730330497265738
0.02202283213753794	0.08109479828120807	0.04054313738391267	0.03359003012430517
0.01477431562305129	0.06006748576819924	0.0259299394856999	0.02826178784257245
0.01724487924655175	-0.0008034811272196473	0.0231449689392248	-0.03380590661704348
0.02235627456898916	-0.06274596585129251	0.08801212730853124	-0.03655571679472698
0.01676542033122329	-0.04078350948367969	0.09674682457715811	-0.02220732763663408
0.01894223281727505	-0.007618264256300839	0.05569334887249543	-0.01313045406067757
0.04824201433421746	-0.05528375849742354	0.02586831157399409	0.003265907594926271
0.05691079123070669	-0.04886735134758011	-0.02699327049771072	0.02029962657849456
0.03428910016949151	-0.03706542095535311	-0.06539255935254133	0.08977952972376152
0.0245253401519803	0.00159923196381327	-0.06092745156723619	0.1066779414128855
0.01396030853256763	0.03078031406348814	-0.04983030166168111	0.06326245280695832
-0.001366134782587924	0.06166817664485433	-0.04142358844504922	0.02271221598644248
-0.04031452509774722	0.096944279289723	-0.0531928994338141	-0.03123269330339271
-0.06908375256779778	0.09867629208405077	-0.04055734612774745	-0.1106379089618097
-0.0631355114503544	0.06834149782885621	-0.02939088852712978	-0.1217694382597665
-0.04175634621941733	0.04808752197885584	0.02110033671171385	-0.0823477094761786
-0.03992775046790166	0.0635617238283601	0.0008163407995050806	-0.0150896608225198
-0.02659015294325812	0.0503283467850311	-0.004562732979535043	-0.01602616023707873
0.00128894498671656	0.03775081338018337	0.01166125898629652	-0.03635788099915346
-0.0008224707673518787	0.01150030771545073	0.0163206843845128	-0.1061193894180776
0.00160249018722561	-0.01883689773577496	0.002168014128548909	-0.1635695871197736
0.00488311888686779	-0.04320222415796874	-0.005236273880016473	-0.05528274620324927
0.003132057671305427	-0.05035932973877156	-0.05514025377325166	-0.004164705476086716
0.0008709147816932494	-0.06188767564197944	-0.07519847614185	-0.01640650748392232
0.0114683210487135	-0.06533894267022256	-0.04556671801260948	-0.04007747893639405
0.01845813898731179	-0.04711776064105109	-0.05253930291046439	-0.06353119610422715
-0.006657832196062571	-0.05449179565000006	-0.06058069433074113	-0.08774585991520363
-0.005658478672237074	-0.07724625843355816	-0.04172203055736014	-0.08081829237537989
-0.003313784087345594	-0.06964290391208061	-0.03929494715961993	-0.03622116829999773
-0.01734893186990594	-0.04367990440842601	0.02422090859453166	0.08981859006608837
-0.02779317327495165	0.009571396565540378	0.04706855746692613	0.03275089111811341
-0.009030535987869787	0.05290935916095007	0.009449228369896173	-0.01550045815160606
0.01301242487723842	0.05504701035445257	-0.002660619835718547	0.02721041759358387
0.01791711595721511	-0.01333430110904525	0.03375980685632545	0.08758522041328981
0.02057407400500744	-0.04225403633564548	0.04181370537695766	0.09651868207215664
0.007204717280515158	-0.0361462604663112	0.04235405457841102	0.07338269097078247
0.005577350473355299	-0.005904442243674643	-0.0053900159874303	0.06343079405302027
-0.002079356516530853	0.02345849223875087	-0.01241486698950897	0.07199988711789231
-0.01605113552650182	0.0893762194267457	0.01009331206049325	0.05864723070853251
-0.02187448206647532	0.002399990627019036	0.01288832319073406	0.05030367509761797
-0.03471748223366219	-0.04242614349847072	0.004689657927103627	0.007177981618985915
-0.02896628128402917	-0.04295820581004138	0.003622187745317326	-0.06674462048725879
-0.01222366123605292	-0.01247284967669659	-0.01417550008406175	-0.06141020364992632
0.008156084714391004	0.01205267287248165	-0.009328458785352123	-0.04409380444640721
0.01067104059676412	0.007292451178067103	-0.01220362346739619	-0.02942925327323904
0.0119194082340481	-0.007687897057761329	-0.006617640545288141	-0.01169847721175465
0.007809433170344113	0.03366602773573782	0.01831806386654475	0.01697732088432186
0.002816684147509395	0.0701136950372179	0.04633157139054481	0.03252166261693785
0.01023903820391921	0.09406234410800909	0.03180824409092589	0.02779681949815493
0.005986545906751801	0.0439208165408872	0.008978914159785488	0.04406389320336496
0.01028152948122913	0.02603334145884536	-0.004284965679622983	0.01481113172257289
0.006172192203149527	0.01610622193851353	-0.01100118559038715	0.01895761066284994
-0.0022916668164986	0.0004736755048708972	0.01825198359769485	0.04846921740068804
-0.01865684048554509	-0.02781185170125333	0.03654906764348916	0.03651635626865805
-0.02318149769017218	-0.05337271838415616	0.02318240038677562	0.007958974422791252
-0.01232637623100193	-0.06282656837856765	0.007636851881102523	-0.000148879366243885
0.007642087823319554	-0.0741645265850264	-0.003672547713645371	0.02339145583884987
-0.003489893952202681	-0.06614596577628842	-0.01663323274838644	-0.02104136644050628
-0.01050734986151746	-0.04592132096050375	-0.05863778013365366	-0.05001605885967068
0.006037654370787232	0.02127685619819382	-0.04955723681996441	-0.02859392966246063
0.01938167176313751	0.02440712572622961	-0.007557800991623185	-0.01298734109130604
0.009395388613846487	0.00333462603788729	0.00866896771258569	-0.03189963058740668
0.007276037341918081	-0.0200939477465506	0.04243176940187865	-0.02576741881497773
0.00690160961117173	-0.0423342234896479	0.1134283939937731	-0.008637133628055521
-0.002514350705571889	-0.04982157015204587	0.08580644851193649	0.0067626314576916
-0.007104695083784579	-0.02491571518764113	0.06497070200034395	-0.004693149555944263
0.00930367865450246	0.03611406535640196	0.02113763479173068	-0.02904548055905721
0.0154378197020315	0.07501311461474343	-0.01907620433440571	-0.007276845511176514
0.01338097167768024	0.120954360070782	-0.01536388008548769	0.03757846365363321
0.02600375291442262	0.1249553372480231	-0.07049092410724885	0.002234749091406214
0.02059007168097902	0.05832290667276686	-0.0569805894462502	0.05250595006993478
0.01190803919119132	0.01895952107029182	-0.06705736745854458	0.08508421928226725
-0.005805119403666043	-0.003935968329974023	0.01094855956796401	0.05120072689448601
0.0007931144385774118	-0.00972358880494731	0.09752003508716728	0.0859924512989696
-0.02305637462823697	-0.01888997170921126	0.02718492994018388	0.07854619955894096
-0.03087713485662725	-0.06603117114284306	-0.01085929443664828	0.0154013054211793
-0.008213013674585174	-0.0673262288790899	-0.04750052828352321	-0.02783958383078289
-0.03341223088602915	-0.07679488743968045	-0.03107783374250411	-0.05862447938420002
-0.07644403291896294	-0.08323386749486088	0.03029507578998375	-0.1085522155483812
-0.02594131726440253	-0.05527218894318321	0.03348501490969196	-0.09623889320687089
-0.02193489362135752	0.01998831639031458	0.03124602853647842	-0.0668511474525133
-0.02348682873364936	0.01562032964651403	0.02073063637207929	-0.01093739363505929
-0.01784268805581464	0.01883930697030073	-0.006789248536119604	0.0497791824553496
0.002824223728445378	0.03831392788697673	-0.001872694339137675	0.04816075608109121
0.0159931332670715	0.06689146539630295	-0.008845572847089022	0.04631390081097767
0.009387420492150722	0.03597580339531183	-0.009287021842450371	0.048892291639956
0.0002109771605876488	0.01828469386234507	0.0129599013056746	-0.006328698454028229
-0.01791281850536305	0.004537752331383369	0.01536306048147537	-0.002099491309677954
-0.03210077193198666	-0.03504126104328649	-0.01382425236784282	0.03073818456597754
-0.04668902460108167	-0.04070339399743233	-0.05748425518036455	0.01003255602453841
-0.02180671309639895	-0.02629310975678441	-0.05939223538442188	-0.04089693608424172
-0.002730919941539259	-0.04699082350082813	-0.06764749631134809	-0.07738575129773578
0.03418532236793501	-0.07253607567274965	-0.05477330030983647	-0.05392432160009902
0.04269353968597639	-0.06944265424553994	-0.00714499439330336	-0.03054553104726103
0.03250026148973332	-0.04691189678796763	-0.006389386262735987	-0.009023218521989458
0.03455437643315355	0.02177855556536922	-0.01766221624018795	-0.02444106956072296
0.03119376836157382	0.1239313971534854	-0.009344337786405213	-0.09962869883805089
0.02358352917250668	0.1344309416587081	0.004342264698993918	-0.1192042486527589
0.01881154202051694	0.08286410406638724	0.01486238026177781	-0.0849048444360584
0.01517145246037336	0.0708776538163759	-0.0130034169343631	-0.04611176373569534
0.0006948046017486419	0.06255347262016521	0.006051554711669649	-0.02433098730306105
-0.01221091446986461	0.05985003975305181	0.04205838541680026	-0.01674034370362371
0.0005627974252160695	0.01707836905346909	0.09445402955520849	0.02365263717794265
0.005301366502135239	0.003569175641366024	0.065002932030894	0.03556987912609916
0.005595241929512683	-0.01444938224485282	0.02186423386247343	0.0951028533993513
-0.01008240189217233	-0.0522322473037212	-0.02565480322891443	0.05399701734889047
-0.02319023184884664	-0.07313339403092682	-0.02646429725142881	-0.01434193709314568
-0.01797755416403415	-0.06703949294699241	-0.0132204879889102	0.01788989119261314
-0.0131692354993933	-0.06399122092111315	-0.00403245703944641	0.06371542976449616
0.01374902505846847	-0.03962428757036661	-0.06045226701637509	0.08284009924893744
0.06355529747218602	0.02914292664191598	-0.09689755437145825	0.1511943132902347
0.02759715731856653	0.02657851680935622	-0.04513539086361049	-0.04986908101159779
0.0108876387473179	0.01500293830625789	-0.06713097467954592	-0.05814528540995178
0.03055149032446305	-0.005665589548251274	-0.06052075537388497	-0.01737829257167568
0.03734411252689172	0.02926550622087481	0.02038901739671762	0.04380999325064244
0.01748840221766749	0.04564878106324502	0.08644358102416419	0.05617416961792423
-0.0048279217860322	0.02626178616880085	0.1043341602430185	0.03436105768644564
0.004450119055129759	0.01263630917128293	0.03614850639361122	0.06287029509364718
0.01900757055974986	0.00119263040334032	-0.007901670433147894	0.03693680545389822
0.01192537130978063	-0.006914822697657292	0.008298068252802236	-0.01247112228426309
0.01103730924224083	-0.008918971162699829	-0.01656319560135982	-0.01522089557768305
0.02422513229290835	-0.008213395376972268	-0.02514511580676915	-0.04592896343711562
0.02165126254544406	-0.02311270166576352	0.06748579034468336	-0.1101745978510835
0.02484012259543427	-0.02658825080980584	0.1159245421544696	-0.08471263695736146
0.02028057843792342	-0.0333219617138269	0.05411479025460789	-0.03884391406213688
0.001593373357962391	-0.07380538263634387	0.0261903843600215	0.0306594074606722
-0.02810864279712344	-0.1266853691138049	0.003676853687423348	0.09808656145140557
-0.03827357333041281	-0.1205092248552635	-0.0136971184938115	0.1841051101628409
-0.03270639910176096	-0.05219644329250527	-0.02768434736553806	0.09725492505136125
-0.02333930002080643	0.02142655318300473	-0.04117181221319798	-0.01293656191994905
-0.003598855337529385	0.07060148208423311	-0.06850366410647073	-0.1021269244172604
0.01422152062946814	0.09487913620977168	-0.07967308081744387	-0.09905860318641439
0.02214172219506838	0.07297882876509673	-0.05845997813516626	-0.05795841726682936
0.03121974470873671	0.0825678329318501	-0.03492729434815489	-0.0303956053967697
0.04569559778927127	0.05081574372395938	-0.0004838642244609579	-0.01183713530583641
0.04453623972691834	0.0176250051300486	0.01544321708865308	0.005964459888165589
0.03947996871095918	-0.0005204923958221266	0.1210264453590202	0.01406649691343388
0.03336793155596452	0.01341197946512568	0.1335831111337764	0.03748325817085203
-0.0007693211554785093	0.03382954335982191	0.04823936016493405	0.02247873097634031
-0.03177432529102532	0.0417727110699227	-0.041147935107632	0.008173810150410445
-0.04706234859577157	0.03276139307172069	-0.07880498269651993	-0.009257954270668228
-0.04579470181819807	0.02003817627948394	-0.05917792556034907	-0.003258773481530752
-0.1032482010660087	-0.01191484381454711	0.02545362985635335	0.004223328278256062
-0.1098608310720683	-0.05206903688566096	0.003789075597150805	-0.01435542614331951
-0.07270186708140465	-0.09411697232458269	-0.02489357066194363	-0.03984701503686171
-0.0588410684960905	-0.08012430198629497	-0.02881702737802112	-0.01326035343127918
-0.03750908269496549	-0.05756178900066424	-0.02122453352333285	-0.005128589398778463
-0.01744242625949486	-0.03355722064649444	0.009044308432508094	0.08653474551742568
-0.0003338265140401913	-0.02000813341362816	0.02890001314585358	0.112012321612084
0.02522277837272369	-0.01500467986592823	0.02511627934570746	0.09308577698467899
0.02303230825222976	-0.009480608110235777	0.02345086450908623	0.0176340117116283
0.01926839228530476	-0.001121571962511294	0.0177917420890795	-0.1263313823462388
0.02582344896623862	0.008641710669641972	-0.0005121263773412376	-0.1793701987071599
0.02765145336739546	0.0178321611317208	-0.02877140626557629	-0.1283031221341683
0.01440458147251145	0.01311287661823835	-0.03397496122920914	-0.08557942392563844
0.02007492507169826	0.01694459649886164	-0.03589416051646029	0.03783378132933872
0.01019685296257288	0.01288543197065509	-0.03543073804440338	0.00188449298316868
-0.03310961843967649	0.00526555130629445	-0.02432363970630293	-0.01689458784798824
-0.02057722797221983	0.03271106755710541	0.01448842812632976	-0.02970986539851193
-0.003937165781730124	0.007939492774310138	0.04616374546152602	-0.02545071314486895
-0.01126875859767248	-0.01432567465814459	0.04644017553709547	0.03791507801032274
-0.03470720505116863	-0.01921631577732489	0.03361209494742109	0.1193495017273555
-0.0455929325043743	-0.02239457705981906	0.01977985786885834	0.1004209805976
-0.0470937833563412	-0.03078908365689569	-0.02448375086705427	0.09749115264469652
-0.04321512700865854	-0.02958094283196497	-0.03033014986968025	0.07924594345001079
-0.01084586189676955	-0.01379646070551278	0.005079548448951239	0.01657352855148291
0.02612594899308216	0.007806581075675794	0.002053838368633933	-0.04049987565430168
0.03503085051208377	0.03779103462376477	-0.01818818527647821	-0.08517427367409863
0.04346981737829991	0.05246517238956674	-0.03306723318800273	-0.1180301707673951
0.05539063160145611	0.0591506805484532	-0.01044015649856957	-0.04637129598677555
0.04100414204115425	0.04664187767686373	0.003865993543341751	0.03973080880751283
0.0265419732677592	0.0357651165353562	0.02221527702548043	0.05821699409862621
0.02879293249378982	0.005614322900888937	0.02614351578323865	0.09259991137099505
0.01380198639919069	0.004663810334331916	0.0234975646502312	0.07722160686978491
-0.0017241421723359	0.01807630316433134	0.02220466739000671	-0.01258549737602493
-0.01170785480463028	-0.004881939453644952	0.001665458877125275	-0.05614158868348338
-0.006947543868335774	-0.04861720813816463	-0.01367430014058482	-0.04593742036343493
-0.006244403814489699	-0.04683223356431535	-0.02904137516095719	0.001531773642290801
-0.0474202248142066	-0.0140030785792841	-0.04029065170627831	0.01856555828047868
-0.04015042054773191	-0.008235322845373446	-0.0477782772464378	-0.03299465683683215
-0.01675782539012334	0.02523309583940096	-0.03405254492022201	-0.09822118740170775
-0.005069973299512762	0.07648687335144411	-0.03894225904281148	-0.04679958253564574
0.003196338507780192	0.03542001318695145	-0.06057947877333572	0.05583826413571311
0.007147830446210819	0.02194572238950939	-0.01879514712671828	-0.05768530675764332
0.01092312788880402	0.01347586572370417	-0.01552907341311947	-0.03788810506941914
0.02158179752340677	0.009499987387713167	0.04757967966471521	-0.01422331555735256
0.02759568083658329	0.002618582064326233	0.1107599655303679	-0.02118237185795218
0.03107800921634889	-0.0102500428384107	0.05189774053580087	-0.002581015900386955
0.03824403136789149	-0.01473741662495681	0.06610436312476682	0.02022491497399746
0.03890766490116516	-0.003647388321237883	0.05471460139965457	0.02731027754139488
0.03904613998989401	0.00212908234253289	0.01694745654965335	0.007819623720475318
0.0317750407945302	0.01012093199383143	0.01404060444033096	-0.01960672293549236
0.01511163271731311	0.004243172906607228	8.669137171143171e-05	-0.0594654325816768
0.003074707514596744	0.002056902366986711	0.01179773767611747	-0.04090066345303009
-0.02181189515594573	-0.01269334149665666	0.0006712401763599291	-0.006597392143373548
