0.001528728072901011	0.04169811995914892	-0.01978585765427874	-0.01082928064786307
0.005247795177435757	0.01209363713690401	0.03199609616342209	0.01217768023525633
0.01381491976155234	-0.02429403180587462	0.04240276691550329	0.01952713236814569
0.01785763927460532	-0.01063362103592667	0.04532900421892408	0.007297273459963807
0.01014866359252269	-0.008710626041075132	0.003919534702664885	-0.02069182819632691
0.01869042726260154	0.006195073683859653	-0.051991029193705	-0.03040767991401303
0.01883652029703992	0.01739266882596449	-0.09214042245576097	-0.05797729534690389
0.004536163898449838	0.0178844629601259	-0.1223737481388254	-0.04602322460263555
0.0009496012033982596	0.02648481599895166	-0.07373981124178161	0.03454766157760078
-0.01563879436169735	0.02488698585073907	0.03337411733123753	0.2103919657528845
-0.01990807639558756	-0.005244573637070472	0.093472971076591	0.1571849262161664
-0.02163046256025525	-0.050166397426565	0.07251845580335972	0.1032073293425298
-0.0206165329704289	-0.04384823817426876	0.1003605844524976	0.02288663698308984
-0.00317207311002057	-0.02723889124467735	0.02365958877912289	-0.07491957484599911
0.006845463138690019	-0.01149201930030572	-0.01692147796504476	-0.08804469889757713
0.007736352717077518	-0.01731949592180037	-0.001291572740041984	-0.08034374491974189
-0.0002202611203806847	-0.01457278021625222	0.01420987075740401	-0.03700511188389803
-0.002035486105872941	0.06935384061040015	0.002345150762622878	-0.02805237351228545
0.004599510033048803	0.09360123076161944	0.04091167898791287	-0.03310801800604359
0.01269066622961129	0.08015806411409297	0.06162879703671467	-0.02840417175248528
0.01215361697267995	0.07489488398548519	0.0331411111618885	-0.02023423714762718
0.01892778810544517	0.1228497798207684	-0.03418170365985386	0.01928124146623697
0.02226743818961524	0.1148001675674608	-0.03562107376861376	0.02339988694954533
0.02271524387013342	0.05554047630915485	-0.0269907826775144	0.01056011431734909
0.01291817190337414	0.0141226927918165	0.007962028786555424	-0.01217359572569007
-0.004301589665106996	-0.007344020208372853	0.04048302907516203	-0.04839239212658392
-0.01903318689724793	-0.02048676775840095	0.0002567570979083338	-0.1156361977519798
-0.009469443816378948	-0.028610057371086	-0.0301950328155142	-0.1059488911362851
0.001055570905684201	-0.04740754212673611	-0.01121270780431593	-0.03864857176077015
0.001809963255440247	-0.06710725161429575	-0.03942212673689993	-0.004249891133802528
-0.003672316371203377	-0.07091904070026168	-0.03989847326011953	0.01588422462846763
-0.02818782990435184	-0.07082788646941374	-0.02892636675968312	0.0498490798399337
-0.02305632800254501	-0.06742194374417526	-0.02950691732103112	0.1182887043028256
-0.0132703285905381	-0.0437195473542328	-0.02103494775616948	0.1704456157608354
-0.009556938674596787	-0.0001161924722312171	-0.01244105313503361	0.1429256255057092
0.00250232364791498	0.01020237228137269	0.02040591727271963	0.0626795372313832
0.003138227834849473	-0.006903580665484884	0.06052294846852896	-0.04774184733126407
0.003327552011903927	-0.0141032042221453	0.06828367404368935	-0.1279376729049959
-0.005889491167953992	-0.02112349726800284	0.03954625356205838	-0.1141815912651578
0.0007338711028329323	-0.0141173598363389	-0.03848403762996157	-0.111868287335286
0.007742797405624282	0.00720969569070871	0.007992845913231595	-0.05167982975347234
0.006004335989755017	-0.001594950870548582	0.0158889648093267	-0.02608696527695803
0.01168073536109624	-0.02186937953231309	0.008604694364486761	0.02104156398257961
0.02392457690736811	-0.01114492917609536	-0.02097240316320742	-0.03979871148973101
-0.003362025972091295	-0.00302949122084686	-0.02199672891338864	-0.01558398668857476
-0.05868310524655716	-0.05800540779740916	0.01371655808046755	0.03653916207056941
-0.04585887431403878	-0.08307931309619911	-0.01438683441812688	-0.01068436992704838
-0.007621336449827563	-0.08391460738008369	-0.02984781248335295	-0.08335725641766203
0.006166815531814219	-0.04449386316148073	-0.03903531341547973	0.02068653321228276
0.01714939375975666	0.04769505741807516	-0.03694145548225173	0.03778211010522742
0.005986592625559305	0.07626609405524129	-0.005701369154131461	0.01967695629952327
0.01546401042551676	0.1576912138287775	-0.008105974040291702	0.03797675748671297
-0.05662097891608499	0.1576104861996324	-0.05391843411699346	0.04103747889336339
-0.05814526285477944	0.1082287803329965	-0.01582868519764271	0.0548993619889902
-0.003922120103630546	0.1068364323313329	0.01066967838562678	0.05994806560618707
-0.01001632992253984	0.05488161036514429	0.0199409882355427	0.04572087038169977
-0.02083026018101578	0.01151414757373394	0.03694072027984827	0.01437744313962187
-0.03574134365151997	-0.005714167506010343	0.006122868138256824	0.004443597260590974
-0.06401194978082198	-0.03542196942937598	-0.01630496176890062	0.01392713342978126
-0.03603123329924259	-0.03781594792643115	0.0139077431556991	0.009693046768269365
-0.00960016014621019	-0.04819590333566035	0.02492441756711679	-0.007589005162887422
-0.001397294379821958	-0.1052815700744378	-0.03252808333618861	-0.02744859925617516
0.01974307985092715	-0.1184158915925957	-0.03441259113874524	-0.03013048504695319
0.02652081558554653	-0.1029721487717744	-0.01602567749318295	-0.01300020604388937
0.02740592343062898	-0.04912078564884034	-0.01178380168155802	0.03665038175791416
0.03520267461940878	-0.009035845214488563	-0.01321885154577762	0.08747458735140858
0.03096358255569057	0.020655463057679	-0.03316311123657886	0.06084565767417058
0.04340061859113163	0.08365840280377529	-0.05114893733643137	0.03788988725369619
0.05525808194627743	0.1371227447194814	-0.05306255974724447	-0.02030843603261114
0.05382474644231245	0.1025456684443269	-0.008993764914829578	-0.02078337791881856
0.01847920449954338	0.0601574843594893	0.05835078420928439	-0.003466133710747781
0.01015659801641584	0.01395031912092563	0.1026928993046771	0.01753530792493527
0.01085747812325326	-0.01003470198802777	0.07361147460404707	0.01849719792037315
0.01536015434635464	-0.01938978818037196	0.08228326873221833	0.03446236442406177
0.01079493505706424	-0.04325599873116951	0.140370730066179	0.01887960348576751
-9.606765018016408e-05	-0.06543378105679172	0.1245920864351104	-0.02294117113117982
-0.004507006530847009	-0.06353302010208264	0.05775105914375348	-0.0558874930008282
0.006107987650982406	-0.02576836182330971	-0.03299302732675419	-0.08032884951497414
-0.005571592021236467	-0.02891036737485873	-0.06279102166499272	-0.0730352046627001
-0.006632765174801078	-0.03813307719258065	-0.06592201253479918	-0.08385359837446556
0.002187403297742945	-0.02243183779712677	-0.04715925122756488	-0.05918692721933803
0.009321305290123478	-0.01837214094874494	0.003624278292574113	-0.008558334211576989
0.0129204940837247	0.009905989609424886	-0.004954886934842741	0.0105202541864069
0.01261043585296901	0.01036262562632556	-0.02845195172224253	-0.004168102154434318
0.01031045920465147	0.007823076987045315	-0.02866291942757924	0.03951901972979909
0.009714502790776991	0.0008911095239976926	-0.0124247379936113	0.04757569446718228
0.005533807903441545	-0.005113858142285104	-0.008530201819597341	0.03364422086885011
0.006013406624048834	0.01186387435515736	-0.00761752717087293	0.02277490001761935
0.009936361223851536	0.004243324654427394	-0.001118305265838448	0.001590338370088311
0.0123092283260806	-0.01205600250687837	-0.04246911175351493	-0.007616568972058779
0.01600461054142903	-0.04611459018998694	-0.06370965949567532	0.01681102658400645
0.004043293923248028	-0.04672314664931769	-0.08964044618162462	0.07283753787161401
0.0003440196394325039	-0.04310940645785707	-0.09248654125080719	0.08888328072649751
0.002135818793457261	-0.03179319001502085	-0.04965084339592649	0.1156053629837449
-0.009948529889088486	-0.02344808948361245	-0.04031934371770191	0.1280529103169499
-0.00838786135567178	0.01920434063088832	0.01451785787887731	-0.03233495888745588
-0.008440654251842565	0.04360026223936449	0.07491412958976323	-0.165550617335612
0.001660081779753693	0.04832075635393554	0.1336367764507065	-0.08167142851028755
0.001317746494243441	0.01310773546627977	0.146590417884321	0.03381019050453399
0.00439965849356347	0.01220130320648329	0.1522132893193728	0.04284364582828024
-0.001437880410480885	-0.03080795413897511	0.08656547650394601	0.007190911827513553
-0.0006686634007186769	-0.0262303103550449	-0.03224126843429952	-0.1025333545303375
-0.01047107287984351	0.009907253368308814	-0.0332753096093901	-0.1061622590545483
-0.006551807514424181	0.04318062196437459	-0.003211356729523818	-0.09366490524116207
0.005344765384282157	0.0440145658171722	-0.008245674615941254	-0.06168915461311839
0.006923709526017185	0.04485487505013157	0.004990292507798983	-0.03450966486681011
0.02542446524524145	0.1011757471123365	-0.006263695492697645	-0.04518318079545797
0.02613941429630371	0.04317965040853136	-0.03470888647768691	-0.05786791546031124
0.009613275968292572	-0.0133400432862103	0.008428100380618789	-0.03416256955461945
-0.01686752404601228	-0.0464608422682693	0.02945190519473664	-0.03665201056937663
-0.04069627213156034	-0.02742437057744051	0.006450106575251193	-0.02698874071705678
-0.04605437159129817	-0.00154998056207306	-0.03868790471657541	-0.001819768905207153
-0.03128863902043463	0.01659345280599974	-0.06132084718679999	0.08375236086613613
-0.01900772355022677	0.07244517574299489	-0.03068561420687207	0.1233962096859961
-0.01614397523018647	0.07928049709335985	0.00156677067059194	0.08440193503316769
-0.01850680542023147	0.05705730244429812	-0.01640885946224376	0.07189128825117394
-0.02248726176465095	0.007597169885312011	-0.02369623176828606	0.06395386497762513
-0.02078601815025289	0.01653311182951072	-0.03172074397251139	0.05720269156417677
-0.01243188581037391	0.01176660930205144	-0.0275515747070128	0.02332865986134619
-0.007865963163303572	-0.003995809084362435	-0.0104674622695759	-0.06272302521801749
-0.00888023032081646	-0.006796615896487088	-0.02401747670860573	-0.03886673606747529
0.001657836440938315	-0.008213524837120366	-0.0403841446607773	-0.01725253546614928
0.002586191541695566	-0.003498474102143289	-0.02500983037512795	0.007510712917914597
-0.00155447574399243	-0.007362893214388212	0.0186295707549802	0.008829692158944354
0.01207432279032747	-0.02298245483279664	-0.02898617629397138	-0.00218343151835488
0.007058932986001288	-0.03648868262098533	-0.04931581284233179	-0.007528657500250813
0.001074437865203788	-0.05670983070954475	0.02228276497038075	-0.005253196721977741
0.003680382032175464	-0.07207060833833041	0.0566519738028864	0.009069465065926768
-0.00319986596346167	-0.08353117618257395	-0.0419692023513297	0.02344802082370992
-0.004446804044623883	-0.07976832567120105	-0.0756798050032917	-0.02379110865710904
-0.005006374157767507	-0.06549368896279727	-0.0398148067217101	-0.05105220676632729
-0.002601585820130807	-0.03776004985447013	0.05885214411387809	-0.0433355239147848
-0.01097431941871753	-0.03162532456873175	0.08436365668852218	-0.03736654771465665
-0.01469755426057083	-0.02902256929636663	0.03403758125430721	-0.01778328204177972
-0.009285758830421233	-0.009418465385367338	0.0315394561209297	0.07858178896698749
0.0007376821789492793	0.01686829122243336	0.04321016496620506	0.1456466174227224
0.004563542395559945	0.05314594045514861	0.05153725516669722	0.1364340294788481
-0.001740125623982216	0.01978891518510112	0.02797439169919089	0.134032925760224
0.007495296693526129	0.05065150572561035	-0.005993724984599963	0.05148271492522671
0.01196862259955635	0.03777590363016346	-0.02323169485956262	-0.08967145942205394
0.01740678963186137	0.01239326862946242	-0.0165490564226553	-0.1314239872744181
0.007751850229063583	-0.008835125298979681	-0.01203937816288735	-0.1287031940781432
-0.0125236186761318	-0.02267310635524119	-0.04503767606828281	-0.1055813071180618
-0.0201269737463983	-0.02806307027391371	-0.03469108689738616	-0.1075681200296561
-0.001483624046462208	-0.03366022407918549	-0.03857006800065071	-0.07002087781852788
0.02166456278322408	-0.01966948933895052	-0.01816924863162877	-0.04861875111108567
0.0009256894921245177	-0.01756610233388918	0.0319654671904334	-0.06175521454910499
-0.01090316030972843	-0.0002725559258419712	0.001637345132711513	-0.04834344550803153
-0.02051599958999613	0.006043134666099363	-0.03292626067061206	0.03893009816806696
0.004733545780304571	0.03347368637993368	-0.0234028552482804	-0.01136082674863276
0.01581978769465164	0.04272926307175477	0.03785737836964423	-0.0206803609825184
0.009550844913885191	0.05335998022436019	0.02658947448309243	0.02052273500796406
-0.005658978940648562	0.04733963513627874	0.01853318882029342	0.02120729166900177
-0.01120254743468632	0.01784751716537315	0.03751370218529677	-0.01358334972018823
0.005359291985797605	0.003895066584217453	0.00456714789341633	-0.02344092605038186
-0.01218472065088378	-0.008571393934199407	-0.02773003062473345	0.001782320006776895
-0.01775692671349242	-0.0008518499458686637	-0.0482150819665938	0.01949384754463562
-0.01035030916757433	0.01481753090597632	-0.07331906086260523	0.02669615841775823
-0.008354488278113949	0.01373165965665813	-0.06083083205890255	0.06002907342541343
-0.005918191683316393	0.04039112853261212	-0.02850868908170068	0.1240481087879678
-0.006215768031585388	0.02992635773374564	0.1166532519803239	0.1370597056013923
-0.007053168863394519	-0.002787806816803418	0.1363266585724715	0.08228962636244652
-0.01161559194470976	0.008659542225040926	0.1067205095318297	0.07806648346527251
0.004509089884181069	0.01786450622503707	0.07431329736079798	0.06535458392265214
0.01408017843471097	-0.01458188418071286	0.0102270794891746	0.02129283281354136
0.02689653967328281	-0.03891838029586356	-0.007837319125738715	-0.006095781083283146
0.03864484903210769	-0.04493009961142653	-0.01633213722513184	-0.02162416277222054
0.02397706700396854	-0.03857730251436253	-0.02640660905696842	-0.04640356292135241
0.01658493650699022	0.0005004760346799996	-0.02399890746000623	-0.0474459383534155
0.03795176953504545	0.05101424281050652	-0.05150858052987409	-0.04124913197745297
0.04206294341305242	0.1174752303509735	-0.06276028950248455	-0.03227632794828562
0.01817703076198726	0.1239318015274217	-0.006628537126889437	-0.0249292169740702
-0.005589023135458099	0.03457071514096454	0.004915112436936816	-0.03815830503371519
-0.0004605646015506427	-0.04731178937420442	0.02732621450445808	-0.02241501700348835
0.00690885576318343	-0.0847742579585252	0.08674004436391761	0.003422371274320746
-0.003310666250194428	-0.09174949675190144	0.01064161296647985	0.01494500414414413
0.0005466646946882996	-0.07618531854842972	-0.001051528527978018	0.001557355585185916
0.0008904082448610854	-0.05747442064993799	0.003485295704841546	0.02271218898609442
-0.00457032534460134	-0.01311140160904176	-0.004040869082928018	0.04870477199415984
-0.008803358267198356	0.06559837542561357	0.000368522956361865	0.05275809295525211
-0.005011761035194603	0.03993067683299863	0.00255362683458871	0.0667426669308217
0.00512186650255085	-0.001932343965091556	0.01678918209220603	0.07812653987305242
-0.0003033279091043757	-0.01352610058699947	-0.0108247719154608	0.06975437755786125
-0.006339580317129275	0.005829389358320848	-0.001424593283169701	0.06308427619058389
-0.001071451641921861	0.03101630859546606	0.00732669327943997	0.02548581388812571
-0.01215931212859157	0.03863093862925553	0.009015853128324569	-0.006437799770381164
-0.006020617465012303	0.03826868496034651	0.01382841943301639	-0.03290479148449362
0.003344394292094612	0.04472369882200779	0.00989876870846677	-0.05461319021644376
0.003534439380647979	0.03635436126776602	0.01021657170336034	-0.070011989329581
0.003078719865966548	-0.01149866518820957	0.0164103811681106	-0.07995553221184791
0.008639184945136703	-0.04025724959390228	0.0008911039465024063	-0.09415897051427578
0.009490556690391812	-0.05507870665909508	-0.004712062688956256	-0.04564831437554969
0.004342567894868531	-0.1023894681012986	-0.004833230535746001	-0.01740577500374026
0.01481766652521519	-0.04787495544507428	-0.02637151096805975	-0.03299203697076522
0.01746018059110352	0.02252469530642692	-0.07610344773691553	-0.04498721487568231
0.004811344947263672	0.03816851301644568	0.0008687363617430428	-0.02106688829404382
0.002945600660991838	0.01375430738809667	0.04062456373464716	-0.01743072448841345
0.00730678014480679	-0.01299851113229683	-0.05133272830818555	0.005931095266074966
-0.004444180155775529	-0.01791347184370844	-0.102718140145499	0.05802004919776322
0.0004352314862410468	0.01751850231680013	-0.09683568459346985	0.04145092893683295
0.001719459706331793	0.02221176986568993	-0.0946450465403329	0.02673790844523349
0.002015813404945845	-0.006807845671115585	-0.04116016684743229	0.09681216345093936
0.008887103122494928	-0.03244497467883188	0.0409256751948271	0.08386616479993138
0.0106409632357681	-0.02562132209418963	0.05038040876890124	0.05534497431847359
0.005927893020687898	-0.01899848795178444	0.02343049978770509	0.009572590545763877
-0.0001151672068098409	-0.002369729609262646	0.02999217437464638	-0.003284451919768461
-0.002461311459755485	0.008221923906424743	0.0213713774293914	-0.09169368460817291
-0.00986648527638566	-0.009602021433799957	0.0320949076073084	-0.1400697248295331
-0.01813343485177153	-0.0435062155114856	0.01276930644018173	-0.1111159816106343
-0.02913550619501839	-0.0719387297533907	-0.001061157014873194	-0.07950764910814567
-0.03082798299043649	-0.06590226768822426	0.01363651608209569	-0.09703894044948808
-0.02386047131222846	-0.04714485195615702	0.003622195747495413	-0.07316641641408618
-0.02452015471973104	-0.03394626799231164	-0.03360143954189078	-0.06604404781295931
-0.02033809063224709	-0.02906128553191309	-0.0372533538012085	-0.01848690379339179
-0.01703932245612161	-0.04770794890928005	-0.04077310251556317	0.004793512227496442
-0.006217526668477842	-0.02727102706616624	-0.01620901982751491	-0.003914249440625313
-0.0001603343792512237	0.02621324584913689	0.0002034631719168617	-0.01485920357568626
-0.001155956414955007	0.1126217272183487	0.005110603247878842	-0.004203553232116118
0.005811733735375198	0.1316761157554432	-0.01209391473624154	0.01746530523683387
0.01296649090125354	0.09839941663197588	-0.03228057047256302	0.0396732128790496
0.02312781523713906	0.1282092026179145	-0.01178705245259634	0.03086989035262968
0.01818488336085722	0.1106155375402302	0.02973238449902749	0.02642691216990767
0.0157020371391453	0.07185805547673886	0.04831597662459244	0.004245815692015483
0.01322224375317584	0.02808795037886925	0.0160910042164723	-0.03696307182079542
0.006318960271078201	-0.007647990971423136	0.04580333622569308	-0.005649059484060562
-0.002607132886554101	-0.01912393507324773	0.05563115266182542	0.06859324344915441
-0.00384350141091167	-0.03596154477915482	0.02116203037047862	0.09020062125813287
-0.01797943737378982	-0.06375491767910989	0.01149365474519522	0.06277932338646589
-0.03432946197216841	-0.07721621255876029	0.01446299320345444	0.02937616173136921
-0.02973790037845519	-0.05984802347493295	0.0167653694528154	-0.02567864061630022
-0.01687973568316501	-0.04769887831639098	0.006748203468795544	-0.03841371146375498
-0.0007640758722784304	-0.03403539570745893	0.001559816027158572	-0.05535368772152509
-0.01255900757000324	-0.01112306847504892	-0.02091479853165107	-0.03572478378653986
-0.03079077207889354	-0.007161078368517728	-0.002158750522916066	0.1230047722957505
-0.008483697314832573	0.01605803438440532	-0.002441399084655136	0.1065961472528909
0.01963031036253922	0.02884631135886763	-0.05168996548523394	0.08232790547183672
0.02021847884632697	0.01953684056292535	-0.06267799469547736	0.06488963765049253
0.01462627174206996	-0.005189350386325866	-0.0523799285199241	0.05199339762945253
0.01537706940201347	0.001941287319169974	-0.02623566479341016	0.01645149975698602
0.005351181196551846	-0.008385644346316336	0.01817993238043522	0.006076175498117401
-0.03712627388224689	-0.03566528487027694	0.1077050550563536	-0.008074077717183043
-0.04898614726256222	-0.03713577071078649	0.1132431796494266	-0.004544796054043092
-0.03152409757580911	-0.02192079258119227	0.05473655884263685	-0.002770862749685836
-0.0006325967125840244	0.0184277162346905	0.03654065434653005	0.01065437032518418
0.01916932804349507	0.02142663295163991	0.01568664271274729	0.02074189085385532
0.01113702877618246	-0.004537644998305289	-0.03000122876990948	0.09156965120993533
0.005180358620366625	-0.009333656042109438	-0.04985052140491727	0.02947368464241963
0.005480986825775322	0.01657696192482375	-0.05638755223931335	-0.037356222914124
0.009241196468251275	0.01234585135661978	-0.0559831254200127	-0.05460481205183569
0.01113399370143407	-0.01028718881849481	0.01296610391312806	-0.03038444953546283
0.01639778254957193	0.001657313369900252	0.04727164817382761	0.006212824982995786
0.0184177742612142	0.01068842637587226	0.04687076341822433	0.01236095120948771
0.0182435932030893	0.02066340436575396	0.006793526151664482	-0.003704891478257698
0.01959660052357783	0.0280453094299326	-0.001356447202859512	-0.02313644549356523
0.009411274966910443	0.0345614288515191	0.02080504735933936	-0.005784608839925671
-0.008531196341121632	0.008965195444375294	0.01984361866826218	-0.02012496808648381
0.006188634859305915	0.005723473390297639	-0.00821241652934002	-0.02411517431580835
-0.009111333106372254	-0.01294578878846411	0.0260229313480508	-0.02171040667054199
-0.007576808670717131	-0.02352459416501707	0.02392904682240547	-0.01267929902165945
-0.00744231277248584	-0.018427990965895	0.01665761365991188	-0.03140739077975634
-0.007266480381662688	0.05938596093517798	-0.005949705263631487	-0.04496879064527559
-0.006003412258649717	0.04857228656336746	-0.05882688832298754	-0.0225036816744424
-0.01511212980269511	0.008983709940189774	-0.08779122038397456	0.01034238243911988
-0.002687417837840577	-0.01812369042993406	-0.07077420258915904	0.004614706606457096
0.01203051769948376	-0.01748755521929992	-0.05265977524300171	0.01208752713638127
0.02862486325887728	-0.003670489916615151	0.008198357660965718	0.02020973877532756
0.03002882629850236	0.01235567630457587	-0.004145103176799276	0.04475646047994363
0.004029227725177881	0.01898010772102085	0.001725461475954051	0.029049417422275
0.008132861355267028	-0.001207343498102523	0.008762474307337597	0.04006107933665741
0.01102931908459031	-0.0198052444609487	-0.01402228877679802	0.005956923769869933
0.02162862027301602	-0.01553254746403802	-0.06901107731462625	-0.06842592068535097
0.02326323701447998	0.01176234656941416	-0.06604765824874273	-0.06627702244721684
0.01833986980989951	0.02873465624597399	0.03479199354169575	-0.1089068490195454
-0.01228800918568963	-0.0003406841690533799	0.03460281607925175	-0.1048682078689789
-0.004963581320151239	-0.020397795259821	0.03903437455430939	-0.06730412484954228
0.008395414068941435	-0.00598212129965407	0.005119926730928923	-0.04257701472398822
-0.001124709439838939	-0.02462696363692949	-0.0008699936926308572	0.0002564475202044464
-0.006235280289899147	-0.03356117166475665	-0.007329378683422537	0.07092172134246945
-0.008369180794821752	-0.03759391682583447	0.002520480150065144	0.1002732259163567
-0.0115742540531682	-0.0310790408341984	0.009607589502078672	0.08406312897133866
-0.01583196060029516	0.000602290042430212	0.01993659731515854	0.01775021235422037
-0.007659779457661949	-0.01294785809820426	-0.01858380415077616	-0.02593575911036482
-0.005528833530784621	-0.02322866217562992	-0.03711549105806512	-0.03614728900326405
-0.003440178355401464	-0.009190345796476289	-0.0003902315282595096	-0.06002138884836753
0.001427083636128458	-0.009260325511013436	0.03058059732954309	-0.01862650524293741
-0.002784570268726948	0.02358043806642075	0.1278378337174609	-0.02603700394500578
-0.0004106312697619052	0.0334908850929196	0.1284635220872452	-0.07171023304907244
0.001690258515315678	0.007962490015738058	0.03171114077763061	-0.09694554748664776
-0.001722963491513656	-0.001600305284837326	0.004652754822055938	-0.04754082647846451
0.01116033721469138	0.03684638496618774	-0.009880593475206463	-0.02193780511205255
0.01463052279451943	0.07253514158272806	-0.01064555278720134	-0.002442383092649476
0.005596682355310918	0.06282723624095217	0.0002421369122922689	0.01139330473202071
0.007165750966711015	0.03817816702643419	-0.01822775649635129	0.03033582232278221
0.002138390911989271	-0.00623661673395642	-0.04496201528018543	0.01847419027603776
-0.003748582210705009	-0.05419592782560104	-0.02787957327896693	0.01897965705956543
-0.02052374090800688	-0.07713418821108714	-0.004858538697499742	0.02014026442877724
-0.01920783464058906	-0.07046318467730153	-0.02922736446908803	0.03093395067150949
-0.01576733421335733	-0.0585985341627981	-0.0671812319800397	0.04723514156620134
-0.01075789269066245	-0.03345278185146318	-0.09309862739593591	-0.01023472538149709
0.01435326083401243	0.002466210775156433	-0.05685382440348322	-0.02024684873135572
-0.005017244850906859	-0.02653667901760001	-0.01650459995371436	0.02668674259038954
-0.01223541864265387	-0.02760066588950843	0.001975014507317751	0.04248784851666609
0.004021394443322362	-0.01218134455825979	0.1032977482767115	0.04882491379998084
0.02604511978585971	0.01530294304693643	0.1278371533464366	0.04143929783795923
0.0294159984054887	0.04044780826519107	0.05632287832712278	0.0400382948951951
0.03033467078703551	0.05895601421258697	0.05034960139970623	0.03676304573711284
0.02281288898103656	0.08431116048986323	0.01324910191206606	0.0600796629685601
0.02821754799500566	0.1253415644347781	-0.02697041593295635	0.06741247428380606
0.01209802221655788	0.07119824797645259	-0.02215006203330243	0.07268591147436962
-0.0036012608116868	0.03869198046874877	-0.01884405602584008	0.05786821220761556
0.0005795441067793953	0.02605355204482628	0.002615784573987886	0.02280733320610642
-0.008334854606042627	0.003786012082569033	0.007179976281566856	0.001201169177570443
-0.03318570790137183	-0.01618958352442402	0.0006979275643800797	-0.03442586524795826
-0.03062275413492618	-0.03770597634180349	-0.003222503994758013	-0.06212219350089157
-0.01755492062562573	-0.04719903405751699	-0.01341333074145595	-0.05396658650395487
-0.0166102369553567	-0.04800056011400207	-0.02606362671121493	-0.04262897971191098
-0.01300389058756318	-0.04543892867332203	-0.02250603296389864	-0.02577187241927359
-0.01020001373405414	-0.04067438549359426	-0.009550922686776627	-0.01583826406481213
-0.01497106094305129	-0.03576255938794629	0.008317102842856541	0.005928148127487952
-0.02748042033133763	-0.02850636174761086	0.0191395105656081	0.01925113906440345
-0.02299812428608942	-0.004315247240027934	-0.01554388972075538	-0.01258362599150347
-0.002776861198331542	-0.001708890767338309	-0.01691490558360283	-0.02412259471476924
-0.001117353762771189	-0.002922653465229112	-0.05576480474332128	-0.01171741498555097
-0.0008009428525642001	0.008900948223451945	-0.08755049359355743	0.008581028950644732
0.001335165082260992	0.01209699793245282	-0.07629094216670834	0.007564440448260545
-0.004464400635936505	0.007286839393425236	-0.0575890901403114	0.01388648915401024
-0.003576760900834039	0.01012649100414259	-0.01334151583935316	0.01877136828119658
-0.0008375124999521471	0.01436545124117113	0.03930381665532891	-0.01154795702949537
-0.008593784026982236	0.0002187891936357164	0.04766820000265407	-0.0465488993558242
-0.009387076941632985	-0.02915935428153321	0.02166643047771893	-0.02855619969013731
-0.01986269278481519	-0.06732715636077589	0.004532550700997545	0.0247179128539929
-0.02143693795382866	-0.09237986134917901	0.001038155631516552	0.04703791667251762
-0.00694037169611947	-0.09211115913506786	-0.002259611859867808	0.0412296754190687
-0.01073219936445031	-0.08096344241735716	0.02925360616291893	0.1069398940201155
-0.01103503981940383	-0.04893509078417559	0.06922650625344377	0.06162312264604402
-0.006202464101910997	-0.02243254308986455	0.007295506227305455	-0.01499952622628674
0.00477485214368889	0.03009339045504632	0.002342344691260884	-0.02629766388876845
0.01669059147932222	0.04944660215702425	0.004305849214444497	-0.0005721419733112507
0.02860257743019945	0.09391440188389641	0.005342841243840802	-7.924443673104284e-05
0.04035494194906296	0.1185286854854923	0.02760685412139287	-0.003762462398679866
0.0414039998435679	0.1103017146550381	0.03444460291864847	0.0112171906147692
0.03230881914461722	0.08295341065818776	0.02472353255938594	0.0499589470335505
0.03051395627120177	0.09251650823789122	-0.01581837529433296	0.03618203646785607
0.02037265137402112	0.04783576676682001	-0.02674057660902687	0.0119148822548672
0.02613876071273609	0.01464843537496837	-0.06243579898558035	-0.006464992237076916
0.01728967700551024	-0.01377535232178014	-0.0345731254443625	-0.04407403240538725
0.01117377736402297	-0.0348722645955481	-0.0055963348264329	-0.09389374737869968
0.00372830882062389	-0.03962022750989458	-0.006249164421899578	-0.1183479882737848
0.01000982835859786	-0.0415552507283826	-0.03038047236243059	-0.08187149818960771
0.01414389184800975	-0.02824368914632954	-0.01315583771354356	-0.01634522053073599
0.0104775875594966	-0.01812502038195113	0.04660049616194169	-0.05887283875091918
0.007220960860502204	-0.02975293291697607	0.06755483852436066	-0.0724753756461317
0.00633671602132073	-0.0250192298405262	0.05201815432714643	-0.03014165797767147
-0.01714727914434003	-0.002662182237937755	0.06567535491363784	-0.03025685723112323
-0.0366151350439996	0.021252691871858	0.04210402533130832	-0.01868281926299495
-0.02674894735107621	0.02515499732923295	0.02307775356982773	0.01958812983365889
-0.03925679053918707	0.03948849356884634	-0.003484200429240802	0.05708172170358545
-0.06808425810467468	0.02856532757940713	-0.030832836826961	0.06398773676824748
-0.02606899365968229	0.02642293572642013	-0.02430720137872066	0.03666968847195719
-0.01392515139947363	-0.006381235326321447	0.0005695441646310469	0.01667666125965037
-0.02689378139168352	-0.02013728600041113	-0.01373686205413682	0.02369219430042843
-0.004292133651357845	-0.01464973317355286	-0.007572154881664176	0.04261396596921754
-0.004118896954412767	-0.03972464080316965	-0.02301774140142853	0.01016164154856088
-0.007209334073980572	-0.04902872936183413	-0.0127728863884066	-0.01489623018382999
-0.009179088751192761	-0.03465251033365693	-0.02490043422912351	0.01905874320250128
-0.002694966806598522	-0.007319904916417749	-0.04184752714960955	0.01344944160006264
-0.0006324284649112774	0.003178543806232726	-0.03542203046275799	-0.005890128025177938
-0.004868888011603033	-0.02471105154028515	-0.01524525337685118	-0.07862551819393285
-0.0003456739178816961	-0.02495188322981232	-0.02168079610363757	-0.09020570974213986
0.01053440579587152	-0.003872969678412352	-0.01331425639427427	-0.06964867844439228
0.005572392338782661	0.007603602864409806	0.009468985754646025	-0.04906668850140657
-0.01158383664858541	0.0005627635049831207	0.05250643493912757	0.06377830080493425
-0.0006647633958769231	-0.002190905354436014	0.05475160264585381	0.1364242018909149
0.01918290205506706	-0.002931934786380467	0.03764367302043974	0.03392144697854992
0.0302153095836072	-0.004101278917057999	0.002752221738435718	-0.03376409498989308
0.03145627268918654	0.01951259788698469	-0.008644928445716087	-0.03684128944948221
0.05356563255361996	0.08130977966994871	-0.01442856942904201	-0.01875920891639465
0.06321876968152762	0.07625515740123733	-0.0005513996701777531	-0.006395694106363183
0.04185232701959923	0.05302262529285789	0.03248266477106697	-0.004002535180626656
0.01223121942492133	0.004559923546013178	0.03274518822656408	-0.006530051118113149
-0.0467137900362686	-0.04826044088166777	-0.0009778037410934377	-0.0002923325034893961
-0.03147524083655703	-0.06169227805341758	4.905558399627836e-05	-0.002292286899668675
-0.02293501661299803	-0.05844646532071879	0.03465747757533549	-0.01014862648013068
-0.01549263885619127	-0.05719756383492688	0.01288056107786508	-0.02064163645576485
0.002654901456111274	-0.01696348026336162	-0.002192301451163643	-0.0272633668788902
0.001077803347402082	0.01612162889917293	-0.003946735143916341	-0.02617010101389984
-0.002918490779892953	0.03539870944272927	0.007077296039561472	0.00878866081164832
-0.002734538056057494	0.03968397655899222	0.01056465359496498	0.04569776320255328
-0.005602066684834288	0.02385548198915086	-0.005628277269242761	0.07647116286676092
-0.002753268008625383	0.008614013689515532	-0.05239541458277169	0.1189307378676811
0.01364516375317652	0.009641884834423999	-0.08361230761764304	0.1207512833084263
0.01354844327335773	0.01793360422159157	-0.05634447657593823	0.06824322154948592
0.02056065970302802	0.03386716718450026	-0.03793372388962337	-0.007912632108485635
0.01529980874616083	0.04176994720952771	0.02607473366581855	-0.07310109134974715
0.02083169121383894	0.007927710360913161	0.07432917638072682	-0.07437945658911088
-0.00145251417359171	-0.03159870200231883	0.06334133591107874	-0.07673939443601402
-0.01089144687105793	-0.04446236753417547	0.0264596919374268	-0.04724825278262596
-0.01906951594973472	-0.06091015677884833	-0.0255326024559171	-0.02529472223560706
-0.03219551245779347	-0.0569019093366133	-0.02800451207778529	-0.01513074611209847
-0.0259201009797194	-0.05513102211129435	-0.02253921310256642	-0.01932921097245574
-0.008903623538361421	-0.04468361164563427	-0.03989728785135524	-0.0261755747697134
0.003261836485951069	-0.02269299365544068	-0.007496609222740658	-0.009396827717155144
0.01599471847609102	-0.03946148648734908	0.006516345232066482	0.02028186891829012
0.01126462524521945	-0.02485877686408168	0.004548244514921986	0.03415654410490186
0.002906050725093508	0.002190015849008981	0.003559642594306313	0.03707343320158359
0.009637420105330993	-0.01485749814746788	0.02420077352278711	0.04393977331979966
0.01556401944740207	-0.01813185454771554	0.002833207605652376	0.03982491813627839
0.01394204848707757	0.02429141124825949	-0.0116568841099807	0.02778572703481012
0.0101135710812974	0.06787039072058333	-0.006834118922748339	-0.008599824375770629
0.01061130692284089	0.06466995166067772	-0.04808626756210707	-0.01988677599962958
0.002180676572200538	0.0541695188059857	-0.05916727061909027	-0.008994370498289392
-0.002461571658121013	0.07402480239790281	-0.04370310422184857	-0.0101593698595693
-0.003380597722333772	0.08863775280732025	-0.018076452844714	-0.001210346005084621
-0.008058398542581679	0.1136983536693877	-0.01531783857466216	0.01110961298808033
-0.00477261322636683	0.1046427803126106	-0.01284100309684013	-0.01691656170467121
-0.007206158972849779	0.06414012673997709	0.005720543234468431	-0.03643983274209803
-0.011558455273285	0.01458433473406932	-0.0130311136322349	-0.03613702324099331
-0.007617581781412731	-0.008701902633871401	-0.01452486422321776	-0.03290231509906085
-0.00303580651057633	-0.009568716696129371	-0.03118767984344241	0.004740715882796661
0.00782256931828056	-0.01262101064457628	0.0004905688069930469	0.07483998868848193
0.009624575612655036	0.004812825786081054	0.04720415303115507	0.1585624524227572
0.004149334010031671	-5.955527813050577e-05	0.07071133081084002	0.08981368120489813
-0.001781934951942742	-0.03372955843346139	0.05108082662748833	0.03417614524142251
-0.00332151741549691	-0.03779792673583979	-0.02087716786611868	-0.002704247212700399
0.001597795763426038	-0.04055008724897279	-0.01908203009399754	-0.005020607276341326
0.01061730641488823	-0.04722723922791441	0.02259302398419475	0.09722457552169513
0.00811575464916795	-0.03850242550249752	0.02116720139297789	0.1085755068894564
-0.0007615672227042633	-0.01452830588102609	0.01596256173765728	0.07330231885445221
-0.01672032708255019	-0.01944018609099729	0.04746411578510795	0.05482210734859987
-0.02412775307082661	-0.03444213687150639	0.04491311765429153	-0.09164751826210139
-0.01538491212441136	-0.02844492830692119	-0.0281836915048724	-0.2189015523414048
-0.004226482156240602	-0.005142897835486917	0.0152182772744158	-0.1625671284103298
0.01134655315920942	-0.01844777191367784	0.03101587001873153	-0.04917245328665057
0.003521288390717685	-0.03292290985315093	-0.002213559890327242	0.07205000885196845
-0.001859607110137125	-0.05440873544782267	-0.004482740888209586	-0.02225795731843369
-0.003774984451811111	-0.05604243668190198	0.04440634867082874	-0.04559724560426724
-0.002057011427321797	-0.04326877764926768	0.06374780952647192	-0.02149497244381919
0.00635938417194676	-0.02153470601397202	0.04305659169270021	-0.02378420948844061
0.007123234745311095	-0.01308475360485307	-0.04070520294042661	-0.01392462051330072
0.002196234302710259	-0.00825032814051296	-0.02438362964512236	-0.02837467531864197
0.002224158657698412	-0.002195319373024817	-0.01485453109906414	-0.04346390402728023
-0.01663068520817488	0.0142061527252376	0.006995482575643112	-0.0311013962755264
-0.03979077143819099	-0.01385644058748315	0.03813036780873343	-0.02347707329041218
-0.03756257822717245	-0.04031843599395336	0.02336058464655624	-0.02769248424454297
-0.03048558848969126	-0.04937157561273493	-0.002710766132745411	-0.01738553522262065
-0.03131735639884224	-0.04287760766465241	-0.01262887670940774	-0.01729583937888765
-0.03003936756163936	-0.01854955270493837	0.003202210677535235	0.01864185660466692
-0.01907724963029597	-0.007975994169671411	-0.03041640545386279	-0.0003682454220326755
-0.00228164297469704	0.0003539949533500098	-0.04217357351696419	-0.008609641186804341
0.007677335970514296	-0.04247862494409697	-0.05094015495644165	-0.01755211773705611
0.01908810096741611	-0.0101310542950174	-0.0418079265372614	0.005458870970933508
0.002796625521403025	0.009854034051418452	-0.04475473701722159	-0.005993939850989395
-0.01245920129248998	-0.01015149665260322	-0.02356093706653066	-0.0319106554329313
-0.0003852484083238597	0.009973868428252633	-0.00889664847824116	-0.02661831705531463
0.007202810286420815	0.03357358995811498	0.007804945803261115	-0.01010634519212736
0.01423432764562417	0.1067663385875963	-0.005521434306654294	-0.02794022602031734
0.007832813585046275	0.1637094388293405	-0.02103728505732285	-0.005337537942785007
-0.01948445850813353	0.1389929147688434	0.005302700746858408	0.0125976005585368
0.03986998079060761	0.1138248915228221	0.006289196118744927	0.02430980857774973
0.04179003543573091	0.07599507297198763	0.01163356287588565	0.05093801170253246
0.03626738470304875	0.03509153457071915	0.04379043261103401	0.05618940153901737
0.03584889423279768	0.01848292927274427	0.02952440572554728	0.05261370625904523
0.02983896436682009	0.002778428078722977	0.05625219459714118	0.02027980128834893
0.009505912183262168	-0.02256857985547349	0.05782522904232437	-0.01661936560858336
-0.05965022644354854	-0.01878790676355841	0.04318081784851958	0.005970212300882355
-0.05197963477722459	-0.009790893970910697	-0.0008242233460519318	-0.001585584367296765
-0.02915812026877487	-0.01207995203573727	-0.01728613214901928	-0.01142413958539473
0.006126198237556031	-0.01749922748254788	-0.04475279222054456	0.00265959953504185
0.02577871477708665	-0.007798201498432426	-0.04253707100611413	-0.01839258029334741
0.02693775746216605	-0.01980462517364154	-0.02431879682909835	-0.02080494348235885
0.0221016054623027	-0.07455315520403212	-0.0122184092365159	-0.02220485594249575
0.02081609879027546	-0.0948926732723987	-0.02905287229727813	-0.02754592444031917
0.01285327902995727	-0.06565596812740082	-0.0267558252746427	0.004614232650658859
0.01146583713054186	-0.04448215275449315	-0.001093601651318323	0.009026787320447345
-0.000954165473379443	-0.01420023389908035	0.0163604647717268	0.006954689780313084
-7.709745888239034e-05	0.02225779456502316	0.02339112833961037	0.05231481970475749
-0.004597322945777281	0.08063630030463856	0.01208613900435045	0.05482018975107085
-0.01976637318117472	0.0940560729086156	-0.01099678262553106	0.0282519953358896
-0.01242141887236373	0.07760495472413992	-0.001367663657309911	0.04008964607327177
-0.003312642154481185	0.001864106886048251	0.001408430181097671	0.02272583703364113
0.005320955266264955	-0.04971325199140331	-0.009697209853918535	0.02932527998914728
0.008069262862050614	-0.05691740314999746	-0.04097900852183763	0.02257657040891968
0.007581891374651116	-0.04742572546665239	-0.02960588725639191	0.0002312190093993255
0.002701370039534557	-0.04955820377060793	-0.01556561258267716	-0.01529043843491293
0.006967596963071625	-0.03197223555439788	-0.04306276192049471	-0.001834647092822092
0.01622502544692636	-0.01435172767549391	-0.06785478807876158	-0.0003852252705706295
0.01025958779787101	-0.02482148847405109	-0.001466915485803159	0.01204076197999364
0.01290930659173807	-0.01762833562172924	0.03515241993810642	0.07164311730863553
0.01686909109270546	0.02085425032452044	0.05472746317515235	0.1148825063299321
-0.006025482320145204	-0.03778206775044909	0.03992259613290121	0.08311819716746442
-0.009139854156234173	-0.02037984890929449	0.02032100595434129	0.05247566410974679
-0.01171454262407121	-0.02694993609351545	-0.01227488824592684	-0.01184321133883169
-0.005949762251881165	-0.03011414697583211	-0.01709383755493742	-0.08696228236221994
-0.001939914550224472	-0.03128574851601504	-0.02093599428134765	-0.1189600302223919
0.01114625293054383	-0.01402828970351822	0.002109699011421009	-0.0815694405664452
0.005430727143038423	0.03036070119515889	-0.003009721208837155	-0.07121710891174048
-0.0009024594724001474	0.06014174494020499	-0.01462965749797351	-0.02867237907918889
0.008675871710259277	0.09472015507312358	0.005530465779871929	0.004805983619882867
0.02600270234799964	0.1171645472045533	0.02220324428479737	0.02803252439757825
0.02796633545486444	0.1153949453072943	0.009528513158915159	0.02630466376890777
0.01566375704264526	0.05989023772762083	0.009740860033774773	0.03451605389853919
-0.003816955181066111	0.0139770986421375	0.03057207951793009	0.05478449195779884
-0.01315554785206181	-0.01219351802968774	0.0411215276084201	0.03112142465868609
-0.01660537994437302	-0.01592844882192376	-0.00959627169991159	-0.03056587965159975
-0.02352104873859619	-0.01683699716124158	-0.009167546898888448	-0.01754714019358016
-0.02573860225949166	-0.01281194923605271	-0.05871308346279797	-0.01414413215766514
-0.02345715783943181	-0.01712284625574476	-0.04529840942760269	-0.01846268578300471
-0.0138570711261497	-0.03399513997358281	0.06207357202011833	0.01564642448191891
0.004268553195884043	-0.03768179051442475	0.1238978839300879	0.01460388432954248
0.008642506804027308	-0.03578379188091935	0.06662795276826086	0.02060911049861077
0.01557136959664842	-0.02196749558684981	0.041662425747716	0.03536271010134553
0.02552242037372703	0.00184307356264504	-0.009284250264564283	0.03366049607918217
0.01866624381631937	0.01210909216297314	-0.03508833803027622	0.01835447287006765
0.01265057884533906	0.01111417066138325	-0.02085429492588042	-0.01168883383089648
0.006500908795594575	-0.005142808383665193	-0.008902815415418203	-0.05724388378849413
0.01139029874429909	0.01471792986546303	-0.01270402722784589	-0.1065700995582921
-0.001915227258924334	0.01191908669295252	0.02322980746386603	-0.01758551968356048
-0.004743029362195579	0.01467453243899736	0.03755629250333569	0.009465900794252451
-0.004941635142055543	0.02876466844551322	0.03043599649412962	-0.0173078232122093
-0.02300327269811555	-0.01348056428835114	-0.0120550296988781	-0.01943791439341721
-0.02269068202175458	-0.03753043250058929	-0.033069649341301	-0.02957781632146832
-0.01550924328959797	-0.03832497261248723	0.01137764909469246	-0.06469891399901034
-0.02029902282713427	-0.04561695787111322	0.00761332872520565	-0.05443959179995943
-0.007537963571789644	-0.03505246178963328	-0.01645271535117411	-0.02686107779477937
-0.005164419323197015	-0.05758720351884231	-0.01906450137138983	0.04119417694301798
-0.00508814741608153	-0.06295584885254847	-0.01238673762196672	0.0690194207725478
-0.005461313608706876	-0.05349945107232092	-0.02608838742947429	0.03804647985474256
-0.005487992750468982	-0.03521646990857281	-0.020960291479604	0.0151383474049996
-0.00903542378637363	-0.04433868050872136	0.002639629451763074	0.005046196008959607
-0.01137898631954852	-0.06204327379916307	-0.03380089405279117	-0.0783223369850939
-0.01072936462485011	-0.03876901320641855	-0.04424389796188771	-0.08241120502797271
-0.00295742472006062	0.02831771667338957	-0.03436462712984416	-0.04257729541525801
0.003110247675378425	0.095543561213487	-0.02334125232662768	-0.0204937309043298
-0.00123678825611423	0.1372964234224476	-0.01847247198238304	-0.01834781294804926
-0.002192307120363019	0.1131922755951181	0.01920164028782587	-0.01673661725063546
0.001675597233291064	0.1427597365058622	0.03882813895470894	-0.01350972176895175
-0.009515367347883179	0.09993821060383198	0.0271575023874635	0.00288881809185592
-0.00757627291501203	0.02633230676029225	0.00563924087770888	0.008808972576334664
-0.004738814871398347	-0.02953877906894883	-0.01993731640694977	-0.003978687147041537
-0.002504657683234612	-0.05053469533708819	-0.01418872354341831	-0.007256879790465364
-0.004431585683937565	-0.03958579307699268	0.003904351358033131	0.001470620280991225
-0.004627213158747591	-0.02142159654494165	0.008541147281630255	0.02845491964328817
-0.002698899097366209	-0.03912345005051186	-0.02533415053683862	0.02826189831915818
0.0005483044610985495	-0.01816231803574073	-0.0113356841678966	0.03945610782313735
-0.02205607532944625	0.005981530270061806	0.01056756583553519	0.06586346353301976
-0.01952147841683345	0.00835291075293448	0.01949829898730007	0.07132699825088397
-0.0004741255910127552	0.003733901365028442	0.02461384979631352	0.05625162988045899
-0.002243979639108364	0.009832183399962639	0.01107199954218361	0.0357804759138364
-0.00974690769213301	0.03461495013304594	-0.006825809213117974	-0.003933272952116557
-0.02661927560123898	0.03456455314155577	-0.02378935907378267	-0.02061386358579868
0.0003043910493167854	0.05027729911650151	-0.01767888364860681	-0.01302785666426413
0.009813365447347075	0.03266354825732525	-0.008862089650559218	-0.01598553513679465
-0.00932158870764406	-0.01373563434801256	-0.01638783735350476	-0.02590301043184976
-0.01554735362362629	-0.0412448806999452	-0.003385939960326158	-0.0152834111510886
-0.005389204829419433	-0.06525238564759367	-0.005377374589291804	-0.001828535965612803
0.001745462437553055	-0.07010468776929633	-0.02209039409413344	0.008190254317390386
0.001382706672824083	-0.07641846564296696	-0.03787444309626108	0.003628097516429436
-0.003318163901303094	-0.08047966356755012	-0.03941936697845208	-0.005987545953922001
0.01843802399323718	-0.06030933784286491	-0.03566904654252759	-0.008147445453802579
0.02761871810069444	-0.03617644539561488	-0.01029939027301527	-0.009931275312817225
0.04341858711441345	-0.01167808013308002	0.02932123000928072	-0.02381698775885082
0.05970978409544005	0.007697273134460145	0.03988770406449679	-0.02267278605497855
0.05997490499562494	0.04091662231642672	0.02881196559057502	-0.02168809440651705
0.05233795430064651	0.08389110369273471	0.06297624495781641	0.006593311761071013
-0.002312486970480205	0.05734268117354396	0.05666028487962272	0.03920865501669097
-0.03987292658121677	0.02785449814643013	0.01990537890441376	0.04986087231018588
-0.02026642594969162	0.01173261531165643	0.01825516063224095	0.0526258978282783
0.01055141030700484	0.03404495513127029	0.02360196100761216	0.08934733004457068
0.009806132943568319	0.04096918912572297	0.0200545240998614	0.1005008914247928
0.004523138987036869	0.03585731922605799	0.04109526468602082	0.1207324475792926
-0.01517149429021828	0.02522982241892397	0.00632452423099185	0.08356189122585758
-0.04089510559001177	-0.001763166025986383	-0.01627416316207924	-0.009217684278419357
-0.04902070754873237	-0.02086417423320038	-0.04120694616708923	-0.1018649342888494
-0.02609799467405787	-0.03796444230132118	-0.04923379404605318	-0.1108665240505276
-0.007216700562813142	-0.03871105096595793	-0.02414361738309809	-0.1177435119688295
0.01444324832776319	-0.03561743081229212	-0.0135200254882895	-0.04215391281515887
0.01032194602433196	-0.03171065720062666	-0.03190032330515767	0.03433293567009068
0.0162620512800078	-0.02299674037026595	0.004859687308244832	-0.03404982735885448
0.02534493445389165	-0.005399896324577855	0.07899881017751827	-0.07979031333959564
0.02970467547434912	-0.01571043006520147	0.0570518759577982	-0.1009171306383442
0.03378999457201329	-0.0217867642522319	-0.004754780427722567	-0.1063372412868647
0.03087814532347637	-0.009798999743282957	-0.03256829308644501	-0.09055404175771284
0.0284818551183732	0.01788282608852802	-0.0374945192793868	-0.06856756813234563
0.03566509889631834	0.04120488574497541	0.00505123665766908	-0.02466083318664541
0.0263734958568962	0.04522349217077995	0.04751296805361488	0.09040611702670159
0.01431406898993354	0.04708712060556371	0.05794895366164469	0.1801355276838711
0.005846728105840634	0.001868025038305976	-0.01287913928995351	0.2372536917897254
0.003390675454396659	-0.02395398686319327	-0.03869580272175949	0.09956766007080078
-0.0002657517688165923	-0.03493585910221415	-0.02671508697375336	-0.05358477573151346
-0.02808795656346231	-0.05751637710700865	0.002679814656465229	-0.06377731885139862
-0.03537860502268241	-0.05476990406705598	-0.005404058932082641	-0.0143329719760184
-0.004873489022746965	-0.04522872523828027	0.006779597073750213	0.004275004700971913
0.006321661429707014	-0.01834816405224698	0.03581624028735667	0.02070725725632911
-0.0002626076665855068	0.004386105208882258	0.006276129523688757	0.02486365488984398
0.004911392195758294	0.02992608398647512	-0.009567799727248992	0.01980597055483925
0.001351272845623474	0.01114002209965215	-0.01267489334644288	0.007195273071910605
-0.01105626268728776	-0.002518387019618159	-0.029545468340837	-0.01860820846907097
-0.01181404054169939	0.01816303162443212	-0.04295697073172061	-0.04477801883069604
-0.02624585000093938	0.002240810239951956	-0.01341027663829524	-0.01019294628937738
-0.01787790197924287	0.04756400670658389	0.0445652235813365	-0.01751474392016993
0.001025571917997703	0.07356579025818423	0.04433613026281508	-0.03328732266663199
0.008845156454119221	0.03254515874025951	0.01064812351983713	-0.006979588907209047
0.002959843258144076	-0.0171538930256106	-0.01717265239409179	-0.005906492614430965
0.00636564887890794	-0.06389076648133532	-0.03981774669939551	-0.001513864980252785
-0.007284559378099386	-0.0774452922875941	-0.01690934707383357	-0.01193072630480091
-0.008118720551238011	-0.127320389626828	-0.02162240520716729	-0.01357891995978816
-0.03686365553892412	-0.09553627177002118	-0.04250747678747104	0.00713510465083643
-0.04896167828918338	-0.006860430119303245	-0.01981006028513263	-0.004426792709783984
-0.03128631791685167	0.0576992449135074	0.00260865460152196	-0.01250810719721743
-0.01428547075058247	0.1411324795758407	0.03710326032867409	-0.007112353054355086
-0.01117619124635449	0.1712822852212364	0.04093571952037615	-0.009049580245398453
-0.02321786655442364	0.2012980493212918	0.01047323495389601	-0.008115863445855454
-0.01863760583841366	0.1269697166228656	0.01213668189233326	0.01154207255425024
0.005338855606405124	0.07214872334860373	0.004133826861069054	0.01893539236824138
0.01093121662311719	0.03386032155663088	-0.005200789685662989	0.01004287948867893
0.01161560170595706	0.006557806694228675	-0.003491596495204806	0.01764978670811383
0.002981447216887877	-0.002940441468219013	-0.02344039817228462	0.01122453750294496
0.01918417132226877	-0.01237189200691059	-0.02973297696184533	0.005688329852593404
0.02294989878319977	-0.002534503469796094	-0.02171522986737533	-0.002851151077080901
0.02444004707147458	0.0001199780497536899	-0.008564845587960081	0.006791207172834894
0.02271603478565617	-0.01896411997927958	0.01715944329098398	0.008245241299484951
0.01097503731606118	-0.04620377572912129	0.009097569604991562	0.02004246629263975
-0.003102947236126416	-0.08222018938875088	-0.001751328709827736	0.006689920866334081
0.004395567907298958	-0.08189417607239016	0.002251508992628233	-0.005650582983534145
0.005467829358802064	-0.06622561614854185	-0.007996605470435304	-0.01934921104720163
-0.02259373866214385	-0.06005762037533867	-0.02546392809070646	-0.01824053338836956
-0.01427492265534348	-0.02783411447789646	-0.01371764764709572	0.003343508097777524
-0.02244550727056634	-0.02258408038247997	0.02835129670377919	0.02248886932233145
-0.0300716662387195	-0.02824330960575559	0.05814492799285833	0.02921887733235286
-0.02514263176283502	-0.006605384822502971	0.03908844869303513	0.0267433507481084
-0.008250455885258036	-0.01060080107693842	0.01019158751013024	0.01068284363599661
0.01228134819708192	-0.01762131654139506	-0.002733800996154999	0.003957633447352924
0.02014028448062541	0.001072835613093042	-0.01113997421950289	0.0001424249547653214
0.02521921732638409	0.005011132188535119	-0.0083039193732129	-0.03360140128652624
0.02748505101593161	0.01515090884803847	-0.0109596700964753	-0.04137115915438082
0.03729984692643207	-0.001200636273905149	0.01026567413571433	-0.01073905022266007
0.02793454662233345	-0.01553182572499421	-0.008017876929148389	0.01175987869424678
0.0162672376076319	-0.007480600711104598	-0.01957364302912704	0.01117727107249027
0.004666535586103275	-0.01459032261027269	-0.03319430273033296	0.01245604047921673
-0.01827325406406877	-0.0446545783112259	-0.03733004670194624	0.01321485335782455
-0.03882947700165085	-0.04146782667360389	-0.0300876871877159	-0.004702988253934936
-0.03959694705129557	0.01017952330931532	-0.04953914125005789	0.03548159249577353
-0.04664921998954335	0.02405713260155354	-0.04177903047601321	0.05014012452068962
-0.01922338837916924	-0.01731681946378771	-0.01820247780412377	0.007929882318262372
0.0002608873539063641	-0.02312581060312357	0.006467729030133233	-0.05064833171028146
0.01646381417863448	-0.01496074337406124	-0.009169911756193853	-0.1384153607690886
0.02221545558105215	-0.009630171707086932	-0.0166966882775216	-0.2049343040522108
0.009633276861747683	-0.01200803384413735	-0.01483508530383453	-0.08762558478949438
0.01136763668340104	-0.01880004512105739	0.003453448803946234	-0.00521487728125804
0.01908673680343149	-0.03590956752051994	0.05758257072540476	0.02335110343987703
0.02862067267124087	-0.05003112289442822	0.07224689488287964	0.04681636563663786
0.02153265797678474	-0.03484983254877379	0.1390131641658846	0.05976171446797645
0.0216645249880754	-0.01439693211039379	0.08430562001640907	0.06080119643257462
0.03356849941678602	0.03505797275246728	0.03178927104772475	0.0358953643767322
0.03414410091179284	0.05081613292045902	-0.007139718997841327	-0.02918863122324728
0.001985969972779068	0.07295372339931934	-0.02370228593842835	-0.03748602294855883
-0.008361791094159366	0.09320260361066156	-0.03924702980732604	-0.02448589574810045
-0.02665212966556464	0.06516045166650572	-0.01578704752765472	0.02559780050920791
-0.09176634174548753	-0.006643995903923954	0.03526887983818957	0.03036610034704903
-0.07855356973172548	0.004444849874258478	0.04723315623670835	0.01619102847826245
-0.04994194819827439	0.01566994509749137	0.04090685148508384	0.01350104342050755
-0.02774981911950625	0.003076762776704012	0.01536802189772787	0.05345156758583745
-0.007408027701387484	0.006411873062792446	-0.01695012135601314	0.03272446480115412
0.01665843414066157	0.005661617197623542	-0.05146129451219054	-0.01150369400531568
0.03328940430810854	0.02370114803861254	-0.02286256692920911	-0.02183397982127466
0.03553582303273453	0.02070081681152415	-0.03076999360906563	-0.05754753589591487
0.01710970825823353	-0.02442170184875899	-0.01853103945708268	-0.06234108778458232
0.007523324673137061	-0.04048652388150885	0.03165988191822049	0.003906319175583236
0.0117436080693887	-0.01852236264016006	0.02590744369534916	0.02389509236659822
0.01477389101717243	-0.002690155756922218	-0.0320926637304399	0.1681872102795099
0.01102647406077838	0.0001518924343992971	-0.04752408112504147	0.1294699757940266
0.000369635915313875	0.0141764286832046	-0.02937981649045695	0.05658738137420646
-0.002915011205875593	0.04983360791681517	0.02207754703191098	0.01349853781917519
-0.01336511290023053	0.03732506873967397	0.01200137371303098	-0.04341120854379997
-0.01385203600722631	0.01659863664629932	0.0188174528287893	0.02646971638182151
-0.02947850432241546	-0.001707407021314944	0.01915339139366454	0.06113403324712051
-0.01311845689913325	0.0575634049973616	0.005817345341969637	-0.03747247172586062
-0.004529307185256412	0.07573713658872244	0.01693580682040403	-0.05691495343120144
0.01122138477685414	0.03526702910092234	0.01554002002457308	-0.03378472203848425
0.01250455304695433	0.03455380585142855	-0.01539241743256852	-0.01326943036873114
0.01571605815453495	0.006352969001100866	-0.02443898449762268	-0.01757863705033218
0.01879037589147617	-0.02634245030565437	-0.01383657437280708	-0.01582311124159106
0.03525848524937825	-0.03990028794410032	-0.02247184210647978	0.01307659278628985
0.03870227704347307	-0.049764019436943	-0.03781670281214638	-0.001345299746817627
0.04493810094047454	-0.04168921283538789	-0.04213447082112959	-0.03421509894702488
0.04706898653318181	-0.0144671663744273	-0.0445165937396157	-0.02334843194093915
0.0173695709023194	-0.01025737930083407	-0.0350428538492326	0.008485779121245042
0.01241413230327285	-0.002372384925781171	-0.02589950938755089	0.004976025450458756
0.01079291156714826	0.03140086916119816	-0.005238501265877105	-0.003572179850673532
-0.001950349210795539	0.007063034726692349	0.01804162694917251	0.001614689980742359
-0.01646956900283449	-0.02235260898126806	0.02715420023168526	0.01371688741760873
-0.01956391696914864	-0.03049936268484591	0.01914659283611946	-0.03173846515795392
-0.009437415533667367	-0.005743042490947072	0.01577008567404026	-0.01147699855284421
-0.00621873785725181	-0.01158482738415479	0.02360228144755273	0.01412510961473146
-0.002999188730656188	-0.02088532775250181	0.0276629095397875	-0.004188693724108272
-0.001660771192373393	-0.01901382249878874	0.02512062230029138	-0.01678309168392723
-0.0004785699577873754	-0.02329988623874634	-0.0134119978459246	-0.01449527644892695
0.0008901978795294209	-0.02395571469807478	-0.02026520051838985	-0.002127313698496138
0.009594360287993303	-0.01845737615269078	-0.02642001105912451	-0.004968796784900222
0.004771024531502579	-0.006543384022654544	-0.03445178363435367	-0.009582316352114989
-0.008176935091257061	-0.002063494822899205	-0.03353822659062224	-0.00263281517163496
-0.03319304944301774	0.004376242488745958	-0.003345940575903434	-0.01569375075941336
-0.03739001409764057	0.01238064731390759	0.04393676938778932	-0.003234926453544497
-0.03416659083695153	0.007450889640855225	0.03523496421864774	-0.003411176899626566
-0.03093341760745971	-0.0111117225199175	0.009338967130759161	0.009501213151127315
-0.02245793014967196	-0.02621006183945413	0.01045047888080592	0.07934944259400954
-0.01908539997958031	-0.03412431391209606	-0.02778458395629738	0.09905471901695832
-0.01427447753975431	-0.02438982779022277	-0.02988970815457197	0.06480773667808094
-0.008773217113259804	-0.03959627560996512	-0.03185877254109439	0.04580527010320912
-0.01273354198712793	-0.05361114261445799	-0.04320156543845528	0.03713102289160907
-0.0004900747268491723	-0.0411155875427542	-0.03341819017658994	-0.05096334107567495
0.009774793767065599	0.01221735447249332	-0.01251877733653953	-0.1119565711854983
0.03292630736267216	0.0796694400155937	0.04658994038760559	-0.07292173800743365
0.02467639434146482	0.05677832398053803	0.05387566135758601	-0.04097383532942613
0.005351314986152385	0.02392514408211891	0.01630762043047934	-0.03550117306775769
-0.002037477155765533	0.02019765261590677	0.03725021919360642	-0.04832918117305358
0.0002310835219287919	0.01253140936679835	0.001746633412696086	0.04906330624401629
-0.000715888418798424	0.01413022816400746	0.01882171364630665	0.02071384366741512
0.02213049203448653	0.03447725475795047	0.03417141024698571	-0.03103501805302
0.02246686194449657	0.03627298549970647	0.01794362200979053	-0.03071945270910028
0.01210372833994036	0.00969179526007217	-0.0001310916145099225	-0.009146789751726314
-0.0119889236583138	-0.01461355129213234	0.03060460800989269	-0.06159012777358867
-0.01446570826391765	-0.02668922591763364	0.03025347794062827	-0.0613163748266765
-0.003143959364450674	-0.03375045235862692	-0.01241152436265499	-0.04210079161962015
-0.01877182156651652	-0.0387581278076418	-0.04838675807327909	-0.02934136028781091
-0.02825193844901503	-0.04505235181543986	-0.09561337501308062	-0.008686762842890628
-0.03224964597889805	-0.06033925302875339	-0.1291515148301509	-0.005303370578800657
-0.02368242981973827	-0.03494175733587921	-0.03093948140099362	0.02748235965035788
-0.01382547067117071	-0.006511589952949173	-0.0003007674479973787	0.005064233008114945
-0.02431922730174339	-0.01205172095836608	0.07928193841159388	-0.001197120411818513
0.01125005889813743	-0.0007152383991717855	0.2090114952537155	0.00303685737175612
0.02981681130676744	0.005169272398758792	0.2179789992559276	0.02595998151085259
0.03719777144754975	0.01873789103201193	0.09863258134120477	0.02662458297224228
0.02669414887943714	-0.02128600077192678	0.0668681422556346	0.03471801708453679
0.01732689812391916	-0.02894022856812605	0.01756177013092166	0.02950175539193494
0.01683659449455943	-0.01604305688588415	-0.04920361384824315	0.02667252211812016
-0.01558510847319791	-0.003865997773391745	-0.05517117466061844	0.01086646458855519
-0.01540791631692019	0.05037779779566949	-0.01128725969778753	0.00116526234682247
-0.0204027760277527	0.067823944452441	-0.01596666146672275	-0.01316788015409989
-0.02278489401589666	0.1038002232745727	-0.06888108645758907	-0.008568533527651523
-0.00442951598800097	0.1695513145448863	-0.08372338409780031	0.0193287103372289
0.005532319431937409	0.1485146697173571	-0.1078204126557856	0.06257216675972706
-0.002278257968164277	0.08068413777303546	-0.08615561686098443	0.04895476570583229
-0.001630208444797075	-0.03311425193518182	-0.01634338351224879	0.02133570050969668
-0.004925825403900932	-0.0321526758934638	-0.007189050234957489	-0.01071506255644788
-0.006237641789701364	-0.03075381397730938	-0.01592971978746425	-0.0212115185576435
0.008357484194122229	-0.03495188162376334	0.01703786239083871	-0.01763038003597633
0.01295174685225647	-0.03345194404316061	0.03539615041678932	-0.02459784582617706
0.01878973577321614	-0.03619522383577999	0.04010400654313824	-0.03305354773930978
0.02542225909708243	-0.03169950693819536	0.03617359179491142	-0.02123803110662522
0.02712004180712205	-0.008315710039205546	-0.004385555770986331	-0.01900587506369195
0.03587014160532473	0.03105066383579781	-0.02839885937969019	-0.01560673940596922
0.0332845451807986	0.04916767965709251	-0.003714359014415703	0.02095928607250041
0.03071059340434407	0.03485683507933205	-0.01212866214892375	0.07656930020988924
0.02689357238032897	0.01875654260474045	-0.02849416218404631	0.05375987637313434
0.007585215670850708	-0.01652087123643331	-0.01952028721291619	0.04462043312493736
0.005769515708528237	-0.04744350873679523	-0.01268065335640342	0.03829963701035769
-0.004877771952946107	-0.05535397200653366	-0.0009004461521188012	0.03421929309152255
-0.01332857818258853	-0.04051180157132456	0.008106065926270188	0.04734697559359916
-0.02290259203173979	-0.03686081217348249	0.004654003620262895	0.0537447404549399
-0.01813868320324476	-0.09109361473832987	-0.01164868618628021	0.05628292284205249
-0.01781977112006041	-0.07917111457628985	-0.02123674598677928	0.05696982239780832
-0.01108602461095266	-0.04116213893390204	-0.02224080709828381	0.0370764615454678
-0.004990830924363207	0.01740302242491737	-0.00649272889131013	-0.02315442564782476
-0.01632156234040686	0.07607277500111247	-0.006435621919379196	-0.06337748920239564
-0.03622657076639934	0.08988983951622734	-0.01847905467937069	-0.08398485661199759
-0.002496050821448645	0.04349146082920557	-0.03942783134609095	-0.1492167938269582
0.01561672871633108	0.02106487954712637	-0.07495782566749061	-0.1201311459841928
0.01610485663120012	0.02462095628595363	-0.03429454923912592	0.0170626623922378
0.006159446095958099	0.01551215289283277	0.0006883193391255601	0.09013253983505673
0.009757186937798572	0.02350612420293736	0.0377480588430826	0.01439975109340628
0.01270196530817248	0.03623512257293234	0.04512700509696549	0.002358509471628543
0.002197407387483773	-0.00554720480649955	0.06655456059594143	0.009401810654743971
-0.001226829145744471	-0.0350198009886389	0.08342455821449016	-0.02355640172867055
0.008338850979941987	-0.0412888679349967	0.05093218933029785	-0.06799811190226647
0.01370921855861444	-0.02209928898676617	-0.0264434330470357	-0.07185651672858451
0.007493293286144087	-0.03846589585061407	-0.06729016326059724	-0.03402202512727572
-0.0006915490063932479	-0.06743538084316886	-0.02936371682318528	-0.03001968314368051
-0.00295652489667008	-0.07745992919151867	-0.002170370860590601	-0.02719875263000757
-0.03263445208912538	-0.08185954002502881	0.02902346499491334	0.001017264832966824
-0.03971637931538118	-0.06695286581180084	0.0165009986606329	0.09305653719078723
-0.03583259624269466	-0.05057497513968871	0.02940814182766521	0.07204523399242935
-0.05642978550850496	-0.02332873573123606	0.03081103304021576	0.01228912828885566
-0.05536068610685321	0.00161617889780671	0.01484140163560098	-0.003344051548339611
-0.04282637998011662	0.07208375316161844	0.01112810469870402	0.06376861371963705
-0.02497275093412468	0.1099768176723242	-0.005577566931607165	0.1215626217491439
0.01820419980678228	0.1036134250471978	-0.006528480235210894	0.1329657095248429
0.03512430630129914	0.08656976034486293	-0.004682378369303806	0.1049903521215618
0.03210830182825222	0.03874681546522577	-0.0342116498532073	-0.01208227675136244
0.02239011984175583	-0.004748221053719012	-0.03130687776419373	-0.1044175030126605
0.004577040445405213	-0.03574426613346217	-0.01921380110850498	-0.1652915322749757
-0.00317144310058084	-0.02948950295483693	-0.02255969719174983	-0.1132397831165231
-0.008105152121802435	-0.0382346828905883	0.004069694238856884	-0.01038878258197643
0.002490268861337885	-0.06445049383335275	0.04524135358533248	0.04214953599080445
0.01176127442311331	-0.04991945223239924	0.1060277146271404	0.04219129393277415
0.005721836535974992	-0.03180846583480311	0.0910519052366042	0.01590641575115386
-0.02761166145083188	-0.02039574397670638	0.02941966352663742	-0.07405901991626188
0.007606885052532865	-0.009346020607426958	-0.004336388367823101	-0.1065777336936963
0.03161472449542303	-0.006008126274237019	-0.02535325266021122	-0.07608350205047637
0.04507608382137494	0.02843671304049146	-0.02589543094364971	-0.05264095319059642
0.04442720122802785	0.05149745863193421	-0.02922267411425316	-0.0254636517352632
0.03904436435948967	0.05992481895363622	-0.0458489918339157	-0.04147301376727427
0.03594538699482277	0.08255835271053744	-0.03399633130809075	-0.03293761460446196
0.02695860408580802	0.08161247674257198	-0.01669502879971743	-0.01832549267469186
0.02053509744066162	0.07981843382515207	0.008254055649869833	-0.00567664197786314
0.01215937050710334	0.06632942513335421	-0.00810272742874475	-0.01840471304500228
-0.02862674450119118	0.005882468576196659	-0.008344171880343507	-0.02229046954123479
-0.05041247256437822	-0.03722696510387318	0.01104542414375861	-0.004975234730126317
-0.06408880999481785	-0.0749022228746819	0.01751698158853868	0.02004428181790356
-0.05702251173955077	-0.08237121570329387	0.0142089617154949	0.004724392152457465
-0.04216438092960111	-0.07540365631469523	0.02146831902143162	0.005306749704683521
-0.04072843553209553	-0.03535250465279244	0.03201802383677797	0.02535041134153843
-0.0344798274764931	-0.002482709424552627	-0.00657500549261916	0.009252532695499688
-0.01741139385063564	0.01094725807725165	-0.005710987666035045	-0.01132785863700107
0.01104801377159214	0.005468422431513844	0.01423815451392846	-0.0210152393317754
0.03600355293379195	0.02394348624998113	0.01524669130058468	0.006157974227501114
0.03706910518559778	0.007788049249888201	0.009476611846465288	0.008231996261721612
0.03050348373134975	-0.00213890227456264	-0.02305566012833598	-0.004291555275069065
0.03913169379825327	0.01211301210522291	-0.0397228059440824	-0.01271902836517351
0.03253872276468645	0.01559788766602956	-0.04712712428081505	-0.00285312916758758
0.02864333515333235	0.00222507982199034	-0.03596880527997978	0.02017453095694377
0.01876680032079951	-0.008412482672663946	-0.01198764515590819	0.06468802685574733
0.01163689920894965	-0.01672106100393313	0.009476674224980402	0.08688551720305535
0.00793098117490814	-0.02186149950702896	0.003425701737221488	0.06798085770128862
0.01809569489242916	0.01105742223363504	-0.003915634737581493	0.06350312739186857
0.0155575408575855	0.01713679604940292	-0.01261140086670245	0.0534216094035075
0.01707284244454194	0.00484565649316913	-0.02344886716250044	0.0376465515765862
0.004331497191877467	-0.03170716625666249	0.0204432812531645	0.04223285918339723
0.001537091568793273	-0.02133939903925674	-0.01190099276243868	0.04959504292478467
-0.002153462683825598	-0.01158375112973446	-0.07624814543522915	0.05008442268099077
-0.0009719624445505774	-0.001734198869646867	-0.05858810147912837	0.05012102758904689
0.00476101616739722	0.006514090140264439	-0.03347616407351618	0.04268763904008268
0.01148144204296368	0.007293925623592257	0.02698936649119921	0.02221412393135267
0.01229892928565733	-0.0004613842617816305	0.04716585085594835	-0.013755158137462
0.007724734114572702	-0.02958354095013181	0.06759754280138322	-0.04531579798352506
-0.01091307566756954	-0.08481320923325419	0.05492852373518449	-0.04726515290855199
-0.01983892136941189	-0.1141609621646307	0.05026682769103623	0.03202451555318245
-0.008552687952431907	-0.08041191710004461	0.04619847438023919	0.03691298089903504
0.004206074432610805	-0.04303608375758683	0.03655296487022804	0.0223192357364447
0.00437940453658651	0.02081181626052707	-0.01311137797354874	0.01078548409159351
-0.01585978912374499	0.05559992856902907	-0.04373797699937981	-0.002817500677371171
-0.01710980759443267	0.1238853074494876	-0.07414457870156431	-0.0172644710600044
-0.01450451901861558	0.1317704680640421	-0.07513103649629846	-0.01959102484335647
-0.01545806768102954	0.1117412237453023	-0.0324231530846153	-0.02578313411856548
-0.02019027002217164	0.08217881434026722	0.0286116058176611	-0.01646335925852723
-0.04245693324256447	0.05483069648592855	0.07315587175595069	-0.004981414521207723
-0.03791256574207898	0.02453892679447598	0.09301951117413609	-0.008874182346205092
-0.03771375149657237	0.01583699191269088	0.09556305923121373	-0.02864431050846832
-0.0283258743844953	0.001343883152922813	0.03084807480454644	-0.01497300337451157
-0.01454276737748576	-0.007399551009637723	-0.04322947133554209	0.08115392903919251
0.001565036876335276	-0.002184889597769609	0.002860064024649398	0.06968656655478116
0.001740258317538241	0.01481106808164906	0.01392031571040287	-0.002668587656472467
-0.005823624015943489	0.0476071324002777	0.0449948497885718	-0.05074334912833259
0.01534686153780694	0.05248726684946201	-0.03302611360104338	-0.15854253429783
0.01934645237738966	0.01690596636212634	-0.02142049220940478	-0.08608226461595932
0.01469490663135357	-0.02718304994675997	-0.01327309332752399	-0.0459132796243415
0.008839091278282776	-0.06269630811346538	-0.009705844912965693	-0.03590922852380478
-0.000284280127099309	-0.09040800373391225	-0.01907687413479072	-0.03136746137431284
-0.006923600754889836	-0.09912522224212887	-0.04223076876433489	-0.02801552600057235
-0.004632136734845377	-0.1008908371731534	-0.05921012605009251	-0.02934924058147623
-0.00494590805957724	-0.1168020329928393	-0.04650894691316732	-0.04409285536524424
0.005740168986821512	-0.07659743054825921	-0.02188507650277825	-0.04119828995225638
0.01509496261731207	-0.02321914405570013	-0.04126393442043867	-0.03265977695096942
0.01073633467572003	-0.004810374718852348	0.00941695872749611	-0.02304735461241833
0.01254644897710247	0.01914709914885682	0.05186739416132715	-0.04023164704890399
0.01139098317507474	0.04539487574869332	0.03342033437291644	-0.04090441054070635
0.0004489342616351202	0.05535907151574427	0.02618154483509774	-0.007702191051297899
-0.002576158338280164	0.04677895046824038	0.04484850948728046	0.02822987141414618
-0.003804164111329733	0.04988316898634947	0.04517053049441569	0.0216161703786738
0.01129819767480095	0.06049115596730036	0.04267498398232002	0.04319745189211556
0.02400317445634501	0.06512518116385956	0.02203389411477906	0.1002902359131145
0.008186318914025171	0.02235430990058232	-0.01576333672836453	0.1061948904147666
-0.01478377527979594	-0.0177755637644903	-0.0460376171154168	0.03850222857603736
-0.01942573550390898	-0.03976150038545637	-0.0514658765532311	0.01016372811641715
-0.01372454146933346	-0.03289964132514688	-0.05658193300399835	-0.0629112133416007
-0.009857902899406629	-0.02459204108321892	-0.07074323218311733	-0.1042673335199137
-0.008337048262450138	-0.005910988964235244	-0.04861749080603696	-0.06156581962483576
-0.02000152148102815	0.03373539794147462	0.02588982818650917	-0.04486165548924029
-0.02230368359947275	0.05371972232896027	0.05277537825193633	-0.005832423892653015
-0.01735369815942572	0.02327043331967493	0.05097018934589625	0.03705419392309273
-0.005675354564458597	-0.02801118042311906	0.00579748709090396	0.03919005216794106
0.005093108677910618	-0.03757461386400938	0.009726915062594748	0.03790282819454163
0.03154863629680706	-0.02437727217066153	-0.003906858809113924	0.01802537033240807
0.04212042211061435	-0.005677410967430248	-0.01325881775926622	0.03492697789606762
0.04723255964727818	0.01466407199745975	-0.01510651920228455	0.04156752668143301
0.06201518836097914	0.007964011564403805	-0.01062084436563685	0.06955234986348534
0.07659925380295046	0.01798617267821418	-0.01959403940555395	0.05437890711585828
0.06745387185712189	0.01588852677914212	-0.0006078593971814195	0.07051455148850541
0.05106291442250985	0.01537090705232603	0.04132193546720504	0.06183770267575549
0.02101763134318093	0.01729017188236203	0.03083230339901916	0.05745832035831333
-0.02016857770283636	-0.004461022199238206	0.005897786205519358	0.03362685531742178
-0.05153579661679634	-0.008931420805392285	0.005210615691098487	-0.003206353595650681
-0.06208663505118011	-0.02196196008549838	-0.007105722452900041	-0.01347792335572803
-0.07130103573998403	-0.03805811208868883	-0.007554681390170332	-0.02926523165696572
-0.129421846611941	-0.04799040674791009	-0.008836822783320515	-0.0577250293452699
-0.08774348339370147	-0.0139381205995668	-0.01271759975526325	-0.09056732456713959
-0.03211366566668037	0.002421257718888671	0.005507451921345908	-0.05547638862509637
-0.01737154430921039	-0.03215793878988587	-0.01814021253090229	-0.03829397351332699
-0.001412050804857254	-0.04169557966630238	-0.04996589181474876	-0.00264282516989201
0.01013763360514255	-0.03411413737847879	-0.04899951551093426	0.063058465728125
0.006082966808182955	-0.0190651643019735	-0.04290437326302153	0.1012078421388209
0.005797455097220257	-0.001795668474893188	-0.02817435891865146	0.1155678515512646
0.003114809284719264	0.03790311074510833	-0.008814585719508482	0.009685880844046773
-0.004204624197652795	0.0559743110305434	0.03164191426986154	-0.09427129432448295
-0.001860364349814725	0.07634837782476733	0.03564831195747364	-0.1324443461765683
0.01016742390792745	0.06464443189887148	-0.033273068908964	-0.1496052497665623
0.0145366627073931	0.03942460391392521	-0.03647473605709038	-0.06843189299192452
0.01447647566472498	-0.004011907809902918	-0.02416743707488332	0.1059063927388788
0.0001803757269788617	-0.03742481179510181	-0.0350815841388766	0.138492171548529
-0.01772062167924207	-0.04232423621328151	0.0828840404348101	0.1508386228684031
-0.006887065296885908	-0.03831130342579102	0.1122311700258416	0.1311710422881017
0.005108625529439282	-0.03643083379246927	0.05301276820129294	0.0006333751703744077
0.01342456173217218	-0.05216189179636921	0.03597659078523581	-0.1789602661153162
0.01651380620173311	-0.04371474144225732	0.01876586276590862	-0.1754893923299314
0.01824476798655867	-0.02279160732566212	-0.03203789825141268	-0.1294288874751458
0.02570620346511325	-0.01451178440000994	-0.06598563153654084	-0.05606459024611172
0.02818138532409035	-0.006072516020063922	-0.0431485312251895	-0.01338835165260576
0.0289575138283776	0.01567122299053862	-0.01617305349474909	-0.01079459741978116
0.03616698636529176	0.04068746929886711	0.008130537051747643	-0.004208965118035453
0.02922649439653175	0.0227256006927801	0.08583439142083729	0.00982577747225165
0.02714168651292184	0.01859410010709303	0.08816876105663497	0.0171443385803948
0.0248666743737035	0.02796354409938329	0.03645590542526839	0.01540684526856029
0.01777459905308522	0.04806265357355882	0.02228227627680822	0.01871057895370634
0.006734362009242081	0.03250441311603768	-0.003002054506339881	0.02881226734142478
0.009320864974490566	0.01170843771004431	-0.04018072279991669	0.02500899767964354
0.001112504898374097	-0.01325159689239525	-0.03943391464700354	0.02908337798459809
0.00104495212520954	-0.02996414808477419	-0.03288849808600981	0.007893885245302415
-0.001600635830649716	-0.01614201393227283	-0.04087356898111337	-0.007752678562314564
-0.003559823030174349	0.01249768907496161	-0.019332217642768	0.05938062240613742
0.001722856432911317	0.03998009181670058	0.0009196978188576164	0.0350717359620621
-0.01350748099058856	0.01560418571484552	0.0136602553516094	-0.01143834109087156
-0.01035605460046224	0.0004923233820531645	0.03349386417256991	0.01371585214478777
0.006432920811508504	-0.01244539433118853	-0.005581890575916623	0.02723253210042263
0.01221267886622286	-0.01263457264260777	-0.01942323704592654	0.008446640019302461
0.01476490002952755	-0.02873075468781594	-0.02033258016194789	-0.05083214560933411
0.02215256468610779	-0.02053307159065125	-0.01386573085743191	-0.06413866715198129
0.02482898993535551	0.001706667676856048	0.02167423575436286	-0.07673826769639185
0.01852066515460092	0.03085257885611058	0.02311535651090427	-0.03184041801104288
0.01031423333972776	0.03482522478690676	0.03635248447215726	0.002439949609619613
-0.005988686303845268	0.01081181835545514	0.02927623252147905	0.01576065822321662
-0.02797483557752298	0.042515522186693	0.003592506013019564	0.03465315643703842
-0.06502046511662316	0.007088654225347901	-0.02890372405392269	0.06130878131453094
-0.06208528131469463	-0.02647071623447355	-0.02429133216339242	0.03983214550670604
-0.05393489007274776	-0.03206085391330835	-0.00169281875888962	0.03624614129401581
-0.04433909703185188	-0.01915918775224307	-0.00593546724037171	0.04097692577224653
-0.03426119674401544	0.02475192197850436	-0.009922746561211216	0.03531461255208554
-0.02373468457402706	0.02985842182602088	0.02064561132825986	0.02940154253977239
-0.01952164080199956	0.003269587267526527	0.02981171410647235	0.01907241836587307
-0.009192411588715706	-0.009941639441572038	0.007883775568917169	0.02003403747745223
-0.0006281582267094098	-0.001843003019629906	0.004869858470487941	0.01871448057346316
0.0009819734522635664	-0.00430696290783465	-0.02413190550092461	0.03708379730663043
0.01068182151859057	-0.01979024756001473	-0.02855892006372289	0.03205827323434546
0.01970680356844632	-0.0149021541511059	0.04233641590314188	0.004287047900632068
0.01876030491928356	-0.004683143207715904	0.06968761389488781	-0.03803862620220226
0.01920222821925364	0.02453576959881259	0.03729025904061018	-0.04605380281760248
0.01552387050495318	0.04807588535756278	-0.01499590111899987	-0.08452386565878912
0.0140208475048367	0.05077287254258613	-0.04077211880837389	-0.1149272307663742
0.01444183591869232	0.01259768627538325	-0.03683902490066118	-0.09389934112917964
0.01474101379553814	-0.03500785894007448	-0.04507990229409993	-0.05975948533097131
0.001257791959123766	-0.05295342479708651	-0.05672922596709223	0.02374353347706319
-0.001610220045155156	-0.05341464954382402	-0.02922972927139559	0.04577728776121127
0.01279957612579362	-0.03905474460131372	-0.01878520755361078	0.03145189347001322
0.006188339543958091	-0.05741228074128075	-0.005570185650843684	0.03638314396940073
0.002218023637442259	-0.05585723767239917	0.001430731742684521	0.0756611574539931
-0.01393068027620853	-0.02283972030202476	0.01935190854016924	0.0861274845426158
-0.02890464561792008	0.01852553209449539	0.03359358725656766	0.05185297758467144
-0.02294457854328989	0.03738220398534135	0.01479807065005111	0.02547398914940264
-0.01911204952183617	0.09603104111283177	0.03262642663827509	-0.01245706004623649
-0.01904128563312264	0.09880267318693413	0.05682156418849978	-0.04397140660846377
-0.006724345661855803	0.04907960811061671	0.02907064525432169	-0.01974546977411174
-0.003734038738067953	0.04081328842948913	-0.00739134236960712	0.002150076381115666
-0.001366776343251602	0.04329949386637823	0.00649633326517261	-0.003309195105984087
0.009146604793570779	0.03297558126614775	0.0269145551919673	0.006206340379778917
0.01212363987421938	0.02510341241850562	-0.004317492358494384	0.08769585931144427
0.01925090721611836	0.009953185452499206	-0.03067699975550597	0.03729675275943873
0.04184540744659631	-0.010763900494673	-0.01852012670577276	-0.03806152605781339
0.03573521918042043	-0.03764810750055114	-0.00624785325363018	-0.07112380860197853
0.02468204874077123	-0.05603746072907614	-0.03125923572086348	-0.190195622220502
0.01414180922535836	-0.07106981750692441	-0.03212138432201126	-0.1977023023591984
0.01544911766886316	-0.08467932260864731	-0.0181617396743531	-0.177632186080179
0.002950351526041704	-0.0962973632839751	-0.02350678878498164	-0.09883071157839397
-0.0005317163111413282	-0.06403673736867191	-0.02624019628568291	0.1994234330978054
-0.01772266884647804	-0.04529946463221695	-0.01215397032121968	0.231227707316959
-0.02999612514826843	-0.03317744234650727	-0.0009960166153357654	0.1258949758097224
-0.01097893406949102	0.000440025366662861	0.01904542871808881	0.08727077423489429
0.005924859697609964	0.0328565548282035	0.0273218108067133	0.0277328653973196
0.004223773575687147	0.02201769558749597	0.0140851762404705	-0.04738285755318048
-0.02980217261753049	0.01469456018442998	0.01816971217357531	-0.06289270821181479
-0.03732919824245278	0.01086578397759582	0.02630453021572063	-0.03686878517041925
-0.0005402317837280453	0.01308450468040239	0.004395640999876537	-0.02876774190223666
9.007786345832146e-05	0.0147387076825048	-0.02037067937862035	0.003294034089328607
0.003431807149933858	0.004398086547254816	-0.03828614144763114	0.03208239521000878
0.02242334472815008	-0.009225048825216707	-0.03271965101790467	0.00396248307305233
-0.01780794230403239	-0.008481579960900121	-0.01770076663203845	-0.03622139477935662
-0.03055427416015746	-0.009872768016958614	-0.01246566512112064	-0.03989677081140779
-0.04517000630192732	-0.002226036244451115	0.01832933835730859	-0.06331489531076417
-0.04717992449117826	-0.02536593514260499	0.02403141291354737	-0.09014565598070891
-0.04166141894945111	-0.06365306250742153	0.0174128758047484	-0.05813950001069461
-0.03106041592449344	-0.0861177634992854	0.006632481069604947	-0.03551507187227676
-0.01591496167439786	-0.07163681614133585	0.007582659882103005	-0.03551143202689644
-0.009571028097306389	-0.03629062521192028	0.01391393354307888	0.01019077550037751
0.006657978575549872	0.008184400022598022	0.03170944358903228	0.05286816895415781
0.01931890938380854	0.07427798031018353	0.02403234337810352	0.04772327517224197
0.01470159011473412	0.1189052915715882	0.0003478773161612084	0.03617232491647073
0.02458067347939017	0.1212091929067938	-0.005994598765840475	0.02360556457422179
0.03088884249862873	0.09510656151470234	-0.004133578123338862	0.006487217422510391
0.04398601712476449	0.02496003416021865	-0.01559987097589454	-0.009440938785723132
0.03663379872840962	0.01043373037847811	-0.04088656558775138	0.0362349544124969
0.03191253182174367	0.03138871421687071	-0.07810122499952345	0.1055236193839964
0.02736793347260263	0.07621192187270752	-0.08200144873088927	0.03488196159481548
0.02543646339226219	0.07713303997319187	-0.04676091032766669	0.009454027629439411
0.007995662286300671	0.02224192444359376	-0.002998652863162412	0.02883924464345211
-0.005134288206414303	-0.001288167764802723	0.009534806662360609	0.06159755369123206
0.0005597620769561253	-0.01523168381542579	0.03864739906685681	0.04121198286338821
-0.004638844753443909	-0.03862482941197989	0.06248161939435432	0.02827295490050758
0.001165736366642395	-0.04655921386139987	0.01677198626476629	-0.02056637008742052
-0.00149591339546454	-0.03569073165143794	0.01533119964160399	-0.03267091734566444
0.008453201466379427	-0.02781930026633769	0.07613781793259811	-0.01896312606277405
0.0110586784644551	-0.01313455973761063	0.04213590787036987	2.035169413413556e-05
0.01563836470682221	-0.008963586292614949	0.05081937745858882	-0.005895979215835394
0.01139505085847656	-0.001739887012179486	0.05967103268630535	-0.01489057709466962
0.0114517492606074	-0.007302252245677919	0.0587160906530335	-0.02594992830331828
0.01368119742744972	-0.002936047919275449	0.01224687630891004	-0.01018601502460817
0.01524937023887791	-0.01179741813985959	-0.007956192685738248	-0.0008543678157473628
0.01346639349390477	-0.009200797286494571	-0.0178330696502285	-0.002740393117219792
0.0140876334675987	-0.0397514090457473	-0.005818340525349758	-0.001661720827043725
0.01028850031021124	-0.0517474516143924	0.01731018394813177	0.0009005066577937965
0.006701461896920048	-0.0145368221671983	0.04045331024798673	-0.01242804393610367
-0.001763344629450316	0.01234616717614015	0.001333713123304948	-0.01744234018981043
0.0004537095103393715	0.06216077912065928	-0.01811986286960929	-0.0247028966311959
0.005061249723336175	0.04283789353719734	-0.02004217148262303	-0.01103246520716835
-0.0008938562748062745	-0.006354679323061202	-0.04340573521156669	1.208710501610978e-06
0.01020017036694947	-0.02047769459208012	-0.07420968633500546	0.01523790572501387
0.008352629344310183	-0.01488832891058611	-0.08491629785045432	0.01171271555002934
0.001183548316088153	-0.002644321379893027	-0.0720203850770991	0.01035531710967985
0.006515635166421133	0.01332888989024324	-0.04548319674527954	0.001656839601981899
0.002532969250697612	0.03136786619512112	-0.01494541136624471	-0.00479713369922254
-0.01320310783882111	0.0235388940225803	-0.01600924492875813	0.08315138870611226
0.002213507641504857	0.04631669536442717	-0.03814378774969201	0.1708882969116461
0.01711496574622845	0.04062881914683072	0.01243344662615025	0.1109491580349579
0.004331782521248154	0.02390000212794623	0.05369918629054909	0.05572659260626849
-0.01529902083810295	0.01738417458683523	0.02972848029192325	0.0181214613779755
-0.01085879637337316	0.005734755581182977	-0.002741138914688638	-0.08063914397367687
-0.00377064599338826	-0.0149038857786189	-0.006805719561275309	-0.1312203857099984
0.006581225688325558	-0.03145385238759362	0.02361023879824442	-0.102786942867862
-0.02172394288160643	-0.04431908270200645	0.04283780014502668	-0.08410391926454197
-0.03335810850333982	-0.04587772530035202	0.08027453610334834	-0.07972129750228557
-0.03228494049462138	-0.05593677229684464	2.572780879166051e-06	-0.06044044613165649
-0.0543579829826623	-0.07389855958100451	0.0006269622066481709	-0.06748283716544058
-0.0425481189863276	-0.05608533664258204	0.02372439935149488	-0.03696792066413622
-0.01941581094897117	-0.01605803753548009	0.0006856531639090687	0.002805233252833629
-0.008220514635964935	-0.02445585333824965	-0.03236293153405853	-0.01615620077414969
-0.03986730199118532	-0.03868254517996065	-0.01647256165145254	-0.0144819001360188
-0.0472296597720584	-0.008386134561658867	-0.01459191489884097	-0.02524215192636844
-0.0213139467422701	0.04883399142017082	-0.02539440987675803	0.01516939871593898
0.002301373333081843	0.0903989574568964	-0.02206035967207471	0.1028897253523492
0.01110491910073805	0.08693844405623083	0.01746509863245531	0.03504318338545612
0.01686819125613942	0.09083142372526215	0.0278054476034065	0.005258112365500167
0.01641752149120628	0.08952588499120474	0.008788824092867969	0.005322019850384808
0.01624095401548303	0.06014155922677356	0.001843149910229649	-0.00642234553566911
0.0139738565849627	0.01471487045436317	-0.002355170886720281	0.04031326063380156
0.005993547443101333	-0.008346473078876987	-0.03719049518293804	0.04601370255478896
0.004495725976370397	-0.067029153579047	-0.03814447956513359	0.04730292844766805
0.002652212664285227	-0.07273679122180193	-0.03656759890631562	0.03093557916652281
0.00384267579929865	-0.06240289368592496	-0.02419510274751899	-0.0263073202144428
0.003604908665152698	-0.04039544187358481	-0.02359248169390996	-0.02430872206009957
-0.01928192695422011	-0.03983785041857753	-0.02541248629836407	0.003573076807191313
-0.03824437526861262	-0.05845998823503849	-0.001734900081594441	0.008701302932236581
-0.04127662187525918	-0.07047084856658928	0.03273648756399013	0.004020396213852117
-0.02698801458612214	-0.08844222039342968	0.02213762405568298	-0.005900834810910331
-0.0240694175342206	-0.08146637044979561	0.01033904743823917	-0.03470015382009093
-0.01205349844509125	-0.05769205758456934	0.06326225599341986	-0.04110953919894706
0.004241380697849535	-0.02323241479825136	0.02998379371761016	-0.02213150929381973
0.02327376335905257	0.05231398577704442	0.01390855565024645	0.0366180499954984
0.02693383354256765	0.08539296429386445	0.01870499277909616	0.01761521842820584
0.03305155303212749	0.07899987501828812	-0.01468792650479576	-0.01598783949103132
0.02769347497216989	0.083739654688976	-0.02549391726349997	0.01037668185473012
0.02173682751864029	0.09528629020546245	-0.02158458824426984	0.01995736533120899
0.01595243442880188	0.1023808564989722	-0.0166592841025575	0.005502949304957631
0.01174042053379687	0.04982234536923665	-0.02195865822553767	0.004685235342130297
0.0009320660080336376	-0.01424646280956549	-0.01360924061286552	0.02340372762458166
0.004779804921176236	-0.02535217816415601	0.0532059022476332	0.1084780303348652
0.01875878994699843	-0.02560416035437729	0.05608247283514624	0.1018457891178333
0.01730440738348264	-0.02127580909615865	0.004671459301218726	0.05381040783178755
0.02054399985091519	-0.01572967370292684	-0.004285571411556351	-0.008026943059861947
0.01476877212816532	-0.001970739043379204	-0.02523827447870698	0.003244678916775933
0.01372641499264152	-0.01648922696432947	-0.01363311551364451	-0.01339929209700113
0.0134444076963319	-0.04854605408318376	0.01280060452009774	-0.1099683257998463
-0.01073530445297718	-0.04069290903474336	0.005885169219073083	-0.05536578681351385
-0.0004228344651750495	-0.01055908773246242	-0.004834241679977739	-0.01084345843754125
0.01475893403063957	0.02854760206626437	0.01516373904286127	0.001796938836750497
0.009037315207462274	0.06765294697648706	0.009285163193466946	-0.03063830742655791
-0.004526638648400413	0.1224569018426981	0.008670177086068655	-0.06272955433613531
0.01122641723186008	0.06762581208461084	-0.001774259967116147	-0.0423579631973804
0.01107073338311404	0.01814547360148534	0.02748119735485117	-0.08060511658969577
-0.01511702352049304	-0.001267472240855454	0.0115525395740783	-0.06511941090696202
-0.05550945890578666	-0.0311105130830371	0.01810613858406002	-0.02064710817195148
-0.05514086691341995	-0.05569480430289636	-0.01682128643141411	-0.007029329256356477
-0.04057310625580692	-0.06749600799087639	-0.03115930254516399	0.01595123381306731
-0.02742583449165068	-0.05117924436125217	-0.04980736343642798	0.02097978862071867
-0.002654796842529234	-0.02534515321759795	0.01174142430469788	0.01199026507087093
0.01402494993685661	-0.01608587618177819	0.09134677547905327	-0.003557427307728958
0.005494693051832902	-0.03183208947228237	0.02600959225649164	-0.01626920256671349
0.009575741047532609	-0.01782445467480702	0.007733835663359529	-0.06358499227001617
0.02116462637546272	0.01461976552523403	-0.003400669571266678	-0.01418931620706151
0.02862675135949065	0.01877098207851422	-0.01957538713404751	0.1105126956480206
0.03240882179028802	0.01766414392379992	0.004387716374443815	0.1019071830267498
0.0341964139464435	0.01256979818394911	0.02320514397729853	0.04857072027208596
0.03152573452935212	0.007576011034434685	0.01224373016897783	0.01130340416701285
0.02249173679747346	-0.001455948401213958	0.007963342882952333	-0.0373063135233789
0.02025221978140741	-0.00691669529751438	0.007308435585496155	-0.0516298348819746
0.005835924274180169	-0.02552285575834334	0.02346826214955548	-0.05134136442117471
-0.002815012712342664	-0.0465523297384937	0.03084991486689532	-0.03403860772325546
-0.01183570122617287	-0.07249558336298724	0.01883775128202128	-0.02396451122168405
-0.01356840087389827	-0.0825729293713756	0.003588083628503936	0.007513486672949165
-0.01307992254138122	-0.08012525552785717	-0.008636719023107821	0.007671508090099716
-0.01032163070588318	-0.05138379211147656	-0.03612118461135041	-0.006982818351310961
-0.01154213449282541	-0.02596103544527636	-0.04071742090032621	-0.01357227210309237
-0.02164590004127076	0.02649005297087231	-0.05358338722863477	-0.004571805179388076
-0.01857786821924295	0.1022897204362615	-0.03646993410129654	-0.01215671972788155
-0.006461695236696539	0.1188163626473105	0.005808724169235296	0.02120010871436535
-0.002880596715229444	0.09742098848911719	0.005028336252501856	0.0292502356283801
-0.0001345939233324823	0.06829052053302473	-0.009906129978787412	0.06296621003006056
0.03545068380828624	0.03782468859928045	-0.02943963555391429	0.07630728528507427
0.03527904457019131	0.04374554992127849	-0.01184741597141286	0.08480610197579054
0.02168723114523877	0.03572655465642907	-0.02234422093384703	0.07347080430409868
0.0145957157287758	0.02448408935851191	-0.05079891128094057	0.0312713324071756
0.007001883298222661	0.01903288391507837	-0.05767903509362192	-0.008505314261493823
0.0107815995885471	0.008269438660048162	-0.02440549897513521	0.0326050020368786
0.01624813376204753	0.007290527474173246	-0.004414479630800353	0.08338140490264691
-0.01695194161885738	-0.05246913395092019	0.01998845276706418	0.086227963336938
-0.03278775619877938	-0.05766040670850328	0.01551316606906378	0.02908216946919453
-0.01490909835510282	-0.02518924126523433	-0.02302349855217614	0.01992293892178495
0.01739327797285114	-0.01870829057523562	-0.01306064994612857	-0.01967883948987054
0.02223919953062992	-0.007675786269178199	0.009062767772271475	-0.08417666403087312
0.0130010418253741	-0.01048553017754237	0.009708207645927882	-0.1063573740985803
0.01450070993933016	0.004019747620639217	0.02701850409467624	-0.07721717326894066
4.977275653939419e-05	0.008168639731002883	0.03920444733783027	-0.0489390288187484
-0.008826473308180247	0.004731634592664194	0.03057800320547492	-0.02757133625720466
-0.04099692016380304	-0.01627543278203199	0.01821159089972887	-0.01749581403921394
-0.03892536885608117	-0.03596618732245681	-0.002068154452417076	-0.006603722303087503
-0.02751919650810668	-0.03123357746185702	-0.03673418660580476	-0.001800132884643171
-0.01076184923353878	-0.01078138798655733	-0.04173418710227806	-0.001494944307288397
-0.01087728520838695	0.001771891202813971	-0.03516148471057954	-0.02239388233593635
-0.009700402877604522	-0.002700363654322973	-0.05186629295790129	-0.03499008520480584
-0.02287423774765189	-0.01182859342431787	-0.05023200839525106	-0.04991104292925247
-0.02576026943407774	-0.0005097916612588043	-0.0172284841867919	-0.03839420397458927
-0.02531523783677146	0.02551416415475356	-0.00507922424319282	-0.03117490645795711
-0.02699160234512329	-0.02082327245221939	0.00890858324863061	-0.008966376719623633
-0.01284205799790911	-0.05072714188584074	0.01023979029398108	-0.01124878326878824
-0.007610577215731022	-0.01988708331374469	0.03532182311078828	0.007016495498233736
-0.008286597809476808	0.04148973410029301	0.04003205046792593	0.01815863705870906
-0.0194262717294769	0.0708385187136	0.04230669136491858	0.05637955545902009
-0.0005861288206689692	0.03255620430923461	0.02987173480231857	0.0844420035542813
-0.004214175467949247	0.001988537550261363	0.0139556991261328	0.09736228963721255
0.001386324773646173	-0.006794988884893948	0.01877463503915345	0.04152995793476426
0.02004910338182443	0.0150628188263264	0.01442405381638629	0.04926330194868329
0.02458090266128163	0.03173602589428409	0.00684950376104305	0.02050228042587589
0.02927104046618671	0.04823566245850324	-0.01433864005422206	-0.004957900451455545
0.02942296721781991	0.05054302057673561	0.001703757803495638	-0.09386757042839318
0.03153994623261401	0.05049821183924111	0.02554869392279004	-0.114453666116083
0.02433800589043498	0.02716579864258817	0.002209318730401111	-0.08825658688574711
0.00733907894547193	-0.02150922638199768	-0.002492714113739345	-0.0422923438954566
-0.01084627567740447	-0.05681677950766263	-0.004601034270909166	-0.02475786842962673
-0.01450594480669899	-0.07154309755501308	0.001484986546833056	-0.02333189947931893
-0.01217339761250513	-0.07377024980728207	0.0206155625246172	-0.04441245011086008
-0.01124391257024427	-0.0607746173785963	0.02336296472933904	-0.04528266585113073
-0.01652644402758605	-0.06009728374648971	0.007809098131823952	-0.01682113035798549
-0.009268035333295142	-0.05065401522013943	-0.0008479654483552734	-0.03445650859426195
0.006849061749160954	-0.01916459001688748	-0.00181691587120981	0.01565453410486587
0.01208894091489476	0.004131707450133615	0.001247712140700561	0.0443733075517639
0.009334333336443148	0.01263329186490988	0.04138082262453353	0.07533115677131917
0.01626864679164828	0.03437111539268376	0.0490599123273075	0.1361640204141937
0.02293947711517355	0.06811638395114582	0.01889016868741211	0.04435715153468603
0.02114464352999791	0.09451391407036068	0.01411460775063328	0.02027212126280649
0.01237905303032205	0.07320017872947802	0.02667641042396934	0.05727397489984642
-0.009665460380282924	0.037493247706814	0.03231308990575618	0.04994751690143011
-0.009419599174150865	-0.003689524673538265	-0.01521596759311859	0.01955778916647458
-0.004120290935124594	-0.01178028745130391	-0.04340629777764245	0.03349153559079778
0.008740506255466296	0.002782335107489015	-0.03634505643754665	-0.04845425193611203
0.01220702175994848	0.005449983663462643	0.01283387582473676	-0.08848997055575329
-0.01008661444938355	-0.02591792904987072	-0.00758419460733555	-0.07633768970971533
-0.01992930933326789	-0.03335647043114612	-0.02915428248272666	-0.04995932795091509
0.002820390971661929	-0.03213890753540076	-0.03593908524214386	0.03938110137171504
0.02827806203757217	-0.02501309935858284	0.02683581771242327	0.08111188585081758
0.03261844721035665	-0.01491757209340087	-0.007075787757577461	0.07258216466443536
0.01265550454085844	-0.03724831232086168	-0.01025049521826623	0.06596170027991206
-0.03626103830771928	-0.0551522787266461	0.07003814923535449	0.04280332404044365
-0.04234196493969838	-0.05729765181677875	0.08501399420485996	0.03718213750353431
-0.040882003118505	-0.03147610287850049	0.01493897496843972	-0.001275645630026511
-0.02509519161871521	0.0147583736637758	-0.03171721165502381	-0.02412651441338853
0.00548650473237451	0.02934277727910968	-0.04129894024602419	0.006483197322899637
0.01584849218310043	0.05959590327697083	-0.05241483770120373	0.04201955052886058
0.02993988920988394	0.08882771724387614	-0.04832688401956543	0.04728075031021762
0.03769049418621053	0.07842021085826807	-0.02457593573425926	-0.01248989137035527
0.007873972992269879	0.02371120539728639	-0.03515270531916977	-0.1334293666355998
-0.008669006720289224	-0.03132564845320863	-0.06470581136179122	-0.1730443786739204
-0.01076936856209448	-0.03717409141308912	-0.01218683433728917	-0.187415353156752
-0.01310631295633169	-0.02321076316112669	0.02273197019773376	-0.09610314674429701
-0.03290607096278859	-0.04472623307856004	0.01912723155075296	-0.02576688652096257
-0.03879663067988989	-0.05167757600161886	0.01171622618086343	-0.009045294428104606
-0.00222621672295462	-0.02865015082269752	0.01634601354759669	0.01532131446079276
0.0175486303317323	-0.002092661060345365	-0.01672244213516618	-0.01200005635987561
0.03049403785464597	0.01127369782157709	-0.007011201880351046	0.04030405277562171
0.03375542910153778	0.02075265856124183	0.01008623091978588	0.05898954798862278
0.02689826078579776	0.03895547464655617	-0.02012983821927437	0.04628087879142347
0.02039870061554864	0.02041768634378405	-0.03976120225731069	0.03320619564537137
0.008378062263175636	-0.008758954596525689	-0.0339542702168217	0.02680832798754383
0.005056923333786558	-0.004813828741001481	-0.03119727544312555	0.01868617858517189
-0.00587239304309058	0.01102098390620241	-0.03166960552182044	0.01226618625283789
-0.007290045073512437	0.01314653578694569	0.02598584201685222	0.05651094828303185
-0.0003442205453311709	0.04353157669318543	0.04524716656232774	0.09141277162102321
0.004121019322676635	0.0971584305715692	0.02983773870679192	0.07263439585937691
0.01000611913427134	0.1040403447825287	0.03395752148970339	0.03742038933253934
0.0005482756159098267	0.02756836553159804	0.03967005744911006	-0.01298824013330986
-0.01386970743338589	-0.04223841019951238	0.03800395445948043	-0.07807379833658261
-0.0175113782057586	-0.08828030871165539	0.007372455459094585	-0.08732972788147245
-0.008891713742201669	-0.1050379541758377	0.02175172613910473	-0.0540614317306827
0.005852301852217801	-0.06784498122068207	0.02383935833747537	-0.01875210676954498
-0.005030915391629541	-0.03773138678417137	0.000953270257611623	-0.01555663196553948
-0.04285727726356928	-0.03759301982862265	-0.007220263454332462	-0.02569173795852044
-0.02699550416493584	-0.02281100191520668	-0.009255976763830174	-0.0189355896922694
-0.002867047084988898	-0.00336601461424412	-0.01292978994817436	0.003339872206876297
0.004124799828021274	0.04124714806295921	-0.03101722547188464	0.02385629063390814
0.01515037609549331	0.03562762210962973	-0.04015466129922601	0.06028243262811851
0.02800448406968221	0.03647666261399939	0.003609631625937935	0.06928197476748252
0.03273161837321631	0.0516311281467752	0.009397679390901357	0.03058569229851961
0.01701667363736525	0.04566819474603103	0.007677898025910119	-0.006227516960616479
-0.004612638190520452	0.02841295178661248	0.0154639649311747	-0.04720910500245604
-0.01226155841400164	0.00342630631780743	-0.0001617398828548054	-0.04913224397166657
-0.0169934133400484	-0.02280026964943698	-0.01741662848050324	-0.01517351101361912
-0.0156942328662302	-0.04174527028311279	-0.006786386798167432	0.01557980317311654
-0.01601925070695195	-0.05031625525229858	0.007555488467379697	0.04983717271261572
-0.02117034643125476	-0.07264753993646966	0.002947366322862474	0.1388330646889098
-0.0318616982929017	-0.08378311249769768	-0.02186727193131665	0.1093503223882294
-0.03090748558680748	-0.06861432315355241	-0.04736211903671592	0.03901132369523124
-0.01606136808220553	-0.05337047030071889	-0.07238372970101394	0.02222983636028657
0.01210122781282138	-0.008676630898330377	-0.051256949762479	0.02946429844649112
0.02539918875504786	0.04174335836662632	-0.01696500749140555	0.009195022508975016
0.03463590210113664	0.08142195751002872	0.01628884457143026	-0.05522527589065751
0.03114576123558814	0.06804210700733267	0.0602297863320384	-0.1089387438260851
0.0307477609634715	0.05939998992878728	0.1161981024937338	-0.1028378503150993
0.03664523341122333	0.04049191138439515	0.05662581050789055	-0.07948039142107545
0.03014794165619199	0.02353701088213033	0.02497712993042196	-0.0450128627022944
0.03005740980287471	0.02164751683355688	-0.01331756419026275	-0.01001433109117099
0.01857942533906833	0.02021273748566689	-0.01624348125463116	0.002151867208458523
-0.01114177745256882	0.02323018928471102	-0.03526000277089895	0.07029836703477609
-0.0244267526034963	-0.000805352664216167	-0.0138939568081475	0.08909451196627655
-0.0192266629601065	-0.03953249203127561	0.01793311167236311	0.04370191736415364
-0.03735435170802475	-0.0614331630735782	0.02176624863541508	0.01782586207636498
-0.04392196371342812	-0.04745374749015606	0.03935843908138312	0.006683448889577285
-0.02405289180064393	-0.03755326210402047	0.01449764095717537	0.01329518401865364
-0.02219645318802138	-0.0211223633174267	-0.01348235012583406	-0.001787370046405778
-0.02338508350541925	-0.008287816888513098	-0.01276575831963754	-0.04942844570443538
-0.006016726874790856	0.008134272640194616	0.008180914112477219	-0.02950502622960477
-0.004108009030099585	-0.002094965931241734	0.008736782490352542	0.001925234699880131
0.002323052024711531	0.001602530344117954	-0.02053432259611425	0.03551217274446316
0.008846784126404991	0.01626431624488863	-0.03560619620823845	0.03293347509807596
0.01331516817684494	0.01359185133225003	-0.009739551781574428	-0.01419890603149337
0.02472070492222739	0.01403730469199817	-0.01665698741937355	-0.04058101877568816
0.01832012438297808	0.03141702678227024	-0.01648197452551434	-0.1378929644656843
0.01372161395282514	0.02402338997721748	-0.01520331117500736	-0.131804289664373
0.01358525032069905	0.03099561843694201	0.0006914786689936929	-0.1053927876303505
0.006428816914752548	0.04793105105885014	-0.004082327522523812	-0.1023363776565389
0.002983032680314687	0.02804663423952463	0.008019685974717281	-0.08822550864336558
-0.01131205778368499	0.001539519612583457	-0.02714856603867328	-0.04628339644655428
-0.00812162583926496	-0.01001773664011431	-0.02510365452163322	-0.02921770690466229
-0.003403786955203186	-0.009229619830992396	-0.03803249634988368	0.003033415824842575
-0.0102905916114927	-0.01476800721700417	-0.04911787906456108	0.03498288056877368
-0.002214681373370171	-0.004370230990552565	-0.02446877819850655	0.07831858531354552
0.01205386364153714	0.01841142874942994	-0.006719866654637204	0.0875978030280386
0.006210237501344283	0.0001851580064762281	0.004235463612191283	0.06916679640370729
-0.009254859722112842	-0.03790770934774235	0.03108690161148882	0.02535325764262261
-0.001607578838527526	-0.05831376843567505	0.04652810918939423	0.01002285025030335
0.005967234718579721	-0.0591151918344627	0.01459750670345715	0.01961133456839747
-0.002804626110561271	-0.02920106767591841	-0.02142492834872584	0.001849290500688001
-0.00773998684096663	0.01196546977466246	-0.0418458542284551	0.02177168666045009
0.009314103793992206	0.05741260795776855	-0.009988170194485124	0.1095474712390379
0.03806199749933428	0.09287900925882989	0.02173100360187694	0.165822640241112
0.03687848288899399	0.1168522356353111	0.05654449588200298	0.1488463001548305
0.01227826273607379	0.06403529490669435	0.05290698971238141	0.1414051633379193
0.0007170031470096812	0.0115751916867025	0.06131670158799182	0.1049199560590854
-0.004792570717680646	-0.02477603463431379	0.08039688779519427	-0.1575034633386581
-0.01335465820408188	-0.06257236960250655	0.05811876753549148	-0.1933541187896122
-0.006583388435729491	-0.09386756861552491	0.02836518001729224	-0.130305834608792
-0.01155909472588314	-0.09835657778949917	0.0005234176517523748	-0.0816693278338655
-0.05284378221184512	-0.0671149434638251	-0.01492504814385042	-0.05060871360948101
-0.0794665123091355	-0.04778789359773773	0.003992471173007579	-0.03420006903585095
-0.06118255292914844	-0.03097829966730304	-0.008217710191688724	-0.02060630145208856
-0.02193632763166669	0.01253620825505536	-0.01185057722022284	-0.004778918417343296
-0.001652615994211507	0.08275272640880782	-0.00195109356344173	0.0157521359235971
0.01035292949002064	0.1255703782245115	-0.0419156608603287	0.0832590216221428
0.01232948435380325	0.0868817291730567	-0.04563494881036551	0.08423525251140081
0.01506747123239654	0.05093869900154077	-0.03562591735313502	0.046615811534461
0.03498786815365873	0.03344157715007237	0.03288853564604309	0.009861332866242467
0.04721604559314078	0.028969934081234	0.01912315195088173	-0.02946422763759457
0.04084185889495178	0.01776081183133086	-0.03312860873630621	-0.004274998455306486
0.02475946246202252	0.006309077162679345	-0.02264970067844132	0.01420430275928682
-0.004686830315032403	-0.0003681266821849427	-0.01502338496440898	0.04132807001176619
-0.0264677881523711	-0.0420008539110686	-0.02064947887622478	0.03187387347840775
-0.0168840081087406	-0.08332516573340439	-0.0234324978190223	0.01956105162932607
-0.008905084743643493	-0.1090122883208249	-0.04230540981609536	-0.01264038462153213
-0.005925141165927561	-0.1035624897889403	-0.04796801283791086	-0.04166894764322868
-0.02138226977240778	-0.06027959342280451	0.000886256650581613	-0.08307968152093069
-0.01670516993135367	-0.02612789872862971	0.06549422325274856	-0.06810925795347587
0.006594120499477309	0.00569946404846534	0.06791993497096777	-0.06191447127345884
0.02748243504878275	0.06458398270981128	0.03424490294007017	0.01119593923721929
0.04052078795532611	0.05865774976267246	0.02751767087988035	0.02380312471014551
0.03103483214942141	0.04368839928899411	0.01008885089769803	0.04161347987626038
0.01756617504209455	0.03232914971436458	-0.0141047649253822	0.1276210118087276
0.01368852353477823	0.03502927912713014	-0.00904967959473546	0.08565151947541735
0.0211733863023485	0.02310637334306748	-0.01848513810290115	0.04256622584674773
0.01011767236995658	-0.03351381637491545	0.007504872909988714	0.02253829401958437
-0.00123887729632479	-0.03825326197121689	0.01807068658892563	-0.004260776996118469
-0.00771982707865364	-0.01864381843010692	-0.008119521337263399	-0.1010577925807824
-0.02001340755946381	-0.0209477279986963	-0.0197211730871864	-0.1087130792658675
-0.03175940314495031	-0.03023256863834008	-0.05642439488148238	-0.06797082231365323
-0.02672099675724347	-0.01564397755145924	-0.03735692071226798	-0.05130767327454976
-0.01736932785323818	0.02353990293601588	-0.03933348569778913	-0.02174340812011252
-0.01168970125778896	0.03926120179879852	-0.0314203138140494	0.01068051784507412
0.0003186545180468674	-0.004387337526986535	0.008167795375535481	0.03407664817635482
0.006223921006355755	-0.01470720817635332	0.04528118003290487	0.02374652191278319
0.01047152289330006	-0.008110226797746728	0.03369169430314062	0.0338143152374447
0.02132863304448173	0.0005554662029028897	0.03782178828803326	0.03585981013356804
0.0116715393517993	0.0002255043647220175	0.0287058231869784	0.04890920587026139
0.002512040908687696	-0.01091943302024872	0.01881073110266937	0.0456501744243201
0.01052913013355089	-0.008321676735992484	0.01703402835460707	0.0339865347004334
0.01303413020212645	-0.01758763625832866	0.01649102048646894	-0.009880294952507258
0.01158870095697431	-0.01975404383427315	0.01001627810809799	-0.01701849503728403
0.01139841552611858	-0.01514509646480044	-0.004703063828006834	-0.01883639484382582
-0.004390977863479906	-0.02081996488818111	0.009192798609562491	-0.02217658303527313
-0.02581146231831589	-0.0223012063401848	0.01367231318121856	-0.04036356831514759
-0.02343524179019555	-0.02283241699452241	-0.01665836008106816	-0.04317262133878992
-0.02009402513126122	0.001097185189490486	-0.02155377537000197	0.002375993255670542
-0.01460393147015044	0.01800578042507112	-0.009269510773334114	0.006238019971678316
-0.008513259731973989	-0.01923210980729959	-0.004816165215790778	-0.02338936589222546
0.001116979340410828	-0.02886692600918489	-0.00161485264001624	-0.0264273617636021
0.01168562334837119	0.01209575600486076	-0.002803576758272346	-0.013071459202499
0.01307147021786122	0.03397226964506136	0.02105447136751858	0.002741365251976873
0.02098118540690022	0.04198612873230451	0.01450154151430998	-0.01018321558871401
0.02118414140530929	0.03997941206595649	-0.04069473898495322	0.0003822668769735073
0.01726921918246899	0.01185651885874956	-0.05224229439292961	0.0293165974500056
0.01106077112753545	-0.01316932128939139	-0.07272490862393211	0.03667846096708446
0.001618668692202937	0.001374079429893465	-0.1097837724418114	0.02989425196332289
-0.008384443536707809	0.02557818436004164	-0.08676621107019328	0.03623233693046658
0.01039037236743688	0.03613700160856217	0.0326101600555396	0.05268037942844041
0.01442524714934717	0.05398803364172554	0.01670849881088947	0.09903868165407421
0.001517165519498606	0.06180936172653695	0.05967808673029517	0.0730360415849956
-0.0007242176236392264	0.02180974527629287	0.08926024815776333	0.009479492516172264
-0.01320436797065045	-0.01298457625337949	0.01778017567168226	-0.07822898037244463
-0.02545604768448798	-0.03543363374516594	0.008941806339312285	-0.1240852022835627
-0.03742865271122329	-0.04713737317052195	0.06184139697302263	-0.117355714688998
-0.0444853209182353	-0.03472169049843557	0.05268585605811841	-0.1415210515353862
-0.05702149219894512	-0.04125194201407686	0.0434437766563739	-0.1065215471654568
-0.04141616053413643	-0.01984656053476129	0.02254198645752892	-0.02580137529669804
-0.01528068500903632	0.0146744101186625	0.007802719122665623	0.01421560010821665
-0.008289771597419478	0.01842432016009685	0.001141726931057826	0.08924553858973906
0.02026915372439661	0.022729799446736	-0.01684418686490163	0.07641067093283728
0.03486563445284169	0.03489383414569031	-0.01526512417291995	0.08928404956726263
-0.02109811451214989	-0.03241667176085941	-0.01365710887830923	-0.08457632522847022
-0.002782083948951099	-0.0203819319001036	-0.01372240102347469	0.001676850389152424
0.02545013189075401	0.007074533762663705	-0.01887714156694075	0.08565131351768972
0.02944895943853419	0.04092922518005951	-0.0595531674135085	0.06837054686881841
0.01745217156186033	0.04938536848052082	-0.08451352803785644	0.08940785644017038
0.01260704914994611	0.04862532657262205	-0.01614909194519471	0.07385666258182863
0.02330239183165439	0.04471242725604425	0.005730306538134311	0.003509061173693042
0.01481889389724055	0.009674265535837065	0.01634210963347212	-0.05324997886015123
-0.007046227307007038	-0.03237653531524678	0.01440347644561929	-0.0853356728710353
-0.0237191680540389	-0.05490458564429194	0.03755270582894392	-0.1160237024656745
-0.03465370763937928	-0.05986489356159265	0.0273960189872294	-0.1752533412663762
-0.04078930869580702	-0.03252509769710621	0.03188619511982264	-0.1458307215779167
-0.01621076201097046	-0.01528816834885854	0.01229399172764588	-0.06367583831203844
-0.005571045948453191	-0.01186889530571705	0.01950083574898526	0.07216013004108647
-0.0005855310250279096	-0.006460652576027919	0.01335060675929919	0.06222780988660132
0.01456881815812206	0.002351519708204883	-0.03990874412099412	-0.01357782359157781
0.02630607363326068	0.03077112742687254	-0.05072577869883278	-0.00336154525891332
0.03684092506581398	0.0288754947985032	0.00168230454310407	0.04594429296384801
0.04013585161587502	0.007908244277507158	0.0188408956438842	0.1053768203603493
0.04321680680160457	0.005930488259005036	0.0305100732785398	0.0898636288786962
0.04431434905009354	0.0008791429369675276	-0.01645333221375563	0.07013696005024403
0.04397905165294442	0.005241475377374141	-0.04342077776271475	0.06140246123348386
0.03523624053773954	0.0007947722545550696	0.01240870969163251	0.02497178119771322
0.0258357791012893	-0.01523973088543447	0.02136188026572681	-0.02052419950927575
0.005817490604215706	-0.04642290862987369	0.002742086512437298	0.01035892357196786
-0.01218273220823444	-0.06250181862084421	-0.004785254339061449	0.01535494247833601
-0.01598234243776898	-0.05744166069567298	-0.01297723266014158	0.03207240929637615
-0.02129736055172382	-0.05659579893569598	0.01319442153670533	0.01363049931273896
-0.02585863008168326	-0.0490794103680046	0.00839813073807784	-0.006832045349079594
-0.02245645810096362	-0.01978031984612243	-0.002471830411408103	-0.0259313338640803
-0.01482534798092509	0.0195510870099886	-0.02487527125159053	-0.01728875578570378
4.479108960513201e-05	0.03715877906432295	-0.03680533950311223	-0.02408339939316844
0.01554414468407892	0.04621880772663619	-0.06252103538447923	-0.03116790205407497
0.008435291188848894	0.06397346120275653	-0.03982817877792311	-0.03246465534762884
0.01795517728402624	0.05333318271635133	-0.005866276669401049	-0.02307807289586365
0.005001764700176777	0.0142011192908691	0.02367632250953568	-0.0217552032875034
0.007973284747949677	0.01040739484020443	0.02994551730097439	-0.0165055407795638
0.005109260248825398	0.02209398307646957	0.01302949991018727	-0.001192678323979642
-0.0006942900386699636	0.0437312731533096	0.00881111261826263	0.0215285229640886
-0.009580305611243184	0.03947835766265175	0.0009721348605571947	0.0154557594551131
-0.03012570164811686	0.01729515996765891	0.01033586119218472	0.0001681893772163188
-0.04432882286587485	0.002872846068420811	0.03052062330045356	-0.004838665376104103
-0.04753914772115105	-0.003526892204735897	0.01271754779135156	0.03247164613912452
-0.03649429601288446	0.02620434345092442	-0.01342865521062701	0.06676374082755095
-0.02121644878691828	0.03893049219978994	0.003357494988002806	0.07840167811830655
-0.01773160286151071	-0.007268222430023483	-0.002340600295018669	0.0784990437966378
-0.01428700318917695	-0.03859523635506407	-0.001264649094802086	0.09251476265178134
-0.01046646543322131	-0.04534606259007614	0.00755948075627817	0.05265702689368971
0.004082173349008733	-0.05312919595207537	0.02576521070570433	0.004253264600464619
0.005250484615692951	-0.04563117686441904	0.02625185402167339	-0.005909408488285356
-0.000219440234371526	-0.0195884993664584	-0.003320201277796131	-0.05020377042421883
0.007086785085612443	0.02619731631037493	-0.03673730592623065	-0.1394234659836583
0.01612552293043312	0.04878326264736695	-0.01798621022855137	-0.1265842150483438
0.0149643514926351	0.03570047788048729	0.02322363175284338	-0.1141607991974909
0.01776842314210814	0.01456746797011163	0.04543320960928413	-0.06713360707220326
0.003452446317445772	-0.004965549439950321	0.0521530587526892	-0.04004743843641023
-0.01966822430813932	-0.01421882951819448	-0.01655604188128226	-0.03169614983607109
-0.006543106811039954	-0.02909958460363224	-0.0295864895319249	-0.01151865080431277
0.007776003631860596	-0.03028415610383745	-0.01082312636387616	-0.001755152544925143
0.01348209622611457	-0.04357195877839595	-0.003048976793106351	-0.007995598016912811
0.006943161946523804	-0.06930714811346143	0.02694230598505378	-0.005070664485638724
-0.007023485998173561	-0.07879097313591003	0.02177495062720919	0.008064445443776479
-0.02302055317942888	-0.04187172191117389	-0.01953406348264131	0.01540320450818299
-0.01171181344560053	-0.01737337593364671	-0.03346668011879386	0.0229874694827721
-0.01491801347841087	0.001993490458455495	0.007816511635589463	0.04542827863212931
-0.01024185308543861	0.07780685853982543	-0.008936762966293619	0.03922850546394608
0.008928151461119587	0.1160946851863463	-0.01833394706776431	0.02856019638068287
0.008168794526152547	0.1049448773758001	-0.02757762590054291	0.004491119310489609
0.01044728233958744	0.08642055271157867	-0.01920812156800425	-0.005506870202784194
0.01166209453181913	0.03668609148884033	-0.01620488050735856	0.009050769281344099
0.01174602497970341	0.01239769756662177	0.0121232562101171	0.006763613005588512
0.01352417774166058	0.01637718551390668	-0.01557491086163302	0.01556984085686141
0.01570169187178238	-0.005551098596598259	-0.0427104953197657	0.0551669567421026
0.01633850456367856	-0.02967785229667443	-0.05920365862845339	0.0550199063236265
0.008198528250746424	-0.03693078248807682	-0.02510982818060987	0.06911575580050293
-0.004332204218609055	-0.0364244682127491	-0.01756451371509465	0.05543004713553353
0.005710342262442963	-0.02221339272404603	-0.007709951852605075	0.01429644013893211
-0.0009599330407449799	-0.03155287098746171	0.03962414685779659	-0.03358606594511552
0.005410918639210954	-0.05954145258245087	0.1209707803185263	-0.0575058746189201
0.02858679005511594	-0.03455778572630421	0.0919165062272516	-0.03857970691228154
0.03394100186151856	0.004814168801710739	0.06859427975807042	-0.02242998318351573
0.02384549874097542	-0.008090488300339245	0.08218413920172089	-0.01228322864355498
0.02404115831436119	-0.02870664364836201	0.04782104375199944	0.02120549009077553
0.02230483034573047	-0.01437117614376404	0.02770017676895619	0.03105376686909662
-0.008171688152561897	0.01509542973872541	0.009354456658812798	0.106300633548372
-0.03686248946938065	0.02377396770853962	-0.02513468046218519	0.06507164680783287
-0.02009192066689573	0.01284935177163797	-0.0185043720395695	-0.0339189039590774
-0.01460998839433998	0.006642714254034703	-0.006730181820953804	-0.0476941838443715
-0.06159543841166065	0.0114116054017325	1.839700138811501e-05	-0.02961184624298592
-0.06457600211262915	0.01537217035221963	-0.01407359365407522	-0.03973804727393525
-0.05326354233055675	-0.002222568031702682	-0.05942942261950593	-0.04911575024638948
-0.02622257184623519	-0.01978979577002983	-0.1213213047975778	-0.0009328189757548871
-0.007937060514850131	-0.008322779833139582	-0.05138058824300563	0.007941058672036358
-0.007173017610606567	-0.02113329009613816	-0.003747346035662462	0.003767654577095306
