0.004228411502980593	-0.007071449056279497	0.004038669328829445	0.01177388567951052
0.004333043535090734	-0.01139996447218501	0.004888760375304943	-0.006245419349319758
0.002934641829851726	-0.00924171814935471	0.004529248594303731	-0.01645229760830032
0.006060411767352181	-0.00770888632314046	0.002509983011708682	-0.01325305848026318
0.0006789835134755482	0.000665284278027861	-0.0004169154050027893	-0.007916707783346834
0.0002680314656530057	0.0001052295873523604	-0.002766079837865992	-0.002741062555316015
-0.005816626451176289	-0.003521769439166875	-0.00159406551131802	-0.001858159032706542
-0.007299582820494453	-0.002346015526015926	-0.003358523249374471	-0.0004527022698910411
-0.01232629370678922	-0.004148595641715798	-0.001105389917197502	0.002833395772793778
-0.02111114318319979	-0.0006936150115911045	-0.004187204903976826	-0.0002775711212395622
-0.01407393158170753	-0.00172283157175688	-0.003944669199665494	-0.001312459972056255
-0.003297011232757316	-0.0001491824831582597	-0.00125492846255778	-0.0008467653909462532
-0.00279201504382207	-0.00418113316857952	0.0005706622079876699	-0.005200826268646015
-0.003997816431331726	-0.01220676185813838	-0.001739457892661356	-0.002111714174895261
-0.003751566597387011	-0.003108856180298873	0.0004128728648268361	-0.004251375230021089
0.002921927139103236	0.006100388156266327	-0.000997073440250707	-0.002902773319404997
0.003470018744102393	0.003892874516114307	0.0004115044784765515	-0.000436949901251381
-0.0007963445576167467	0.003524529009969131	0.0005194898183472527	0.01941922461802724
-0.005720780543119428	0.004512584195465372	0.001654035147930021	0.01374577691459119
0.000735298567416576	0.006494820678830307	0.0009710478051733317	-0.006028329982655836
0.0005353457969713872	0.0006844827786865572	-0.001521195259712458	0.0005465462246512908
0.006172506449104677	-0.006716320015083091	-0.0004421049572121258	-6.761261072615479e-05
0.005826264119318145	-0.005529020195559935	0.003979970962298289	0.003297091411073246
0.002016934324211139	-0.002359095640638423	0.001748831985248987	0.006543341688919862
0.003100477740537061	0.003263124841250868	-0.0008730313942901442	0.003942730643960914
0.003923867952409001	0.002453624371347587	0.00164177920987533	-0.0003269150327583592
0.0003702897611400545	0.005797867790087748	-2.034182394483173e-05	-0.0003433865723565714
0.004905842423769805	0.01095526152598587	-0.001711709222647861	0.00130844894135216
-0.0006503457406040434	0.005949170190695774	0.002235011532033384	-0.0002273145716284997
-0.0118752711742246	-0.004536983080507637	0.00113229493730903	-0.003212140066611735
-0.00864636819161003	-0.003038723260911329	-0.0004649190238442397	-0.002342536736803575
-0.004046519260263484	-0.00524356479038549	0.002339798265630698	-0.0005622058537384113
-0.00151605240655693	-0.008866772053382013	0.0004847927625038082	0.001000218741456497
-0.0006946275095897609	-0.0129056191383351	-0.002806367709284906	0.001271230161062492
0.001381871408625401	-0.01015713415286141	-0.007505087036555701	0.001897522998704753
-0.0001427885648533637	-0.00570666980392557	-0.005587480817508037	0.006546912388044417
0.005539403106423214	-0.000865055422429457	-0.003902689358605762	0.004016092933051889
0.008857873746405754	0.00508651223432648	-0.001740715969798731	-0.00135941561196784
0.009994678120641446	0.01114039920707925	0.003501956702065053	0.00320176756935103
0.00562045827869396	0.01954748017572213	-0.0004382716625803175	0.0007967208634131638
0.005951707399568009	0.02562478637234412	0.00441703098893242	0.003544390774412083
0.006032835858043414	0.01957305560562479	0.007411085623546904	0.0006022684967509266
0.003728225086104519	0.006667924737630863	0.003037597658250853	0.006288491334053596
0.002822738040088145	0.002022938960009887	-0.001379794380422609	0.0009750368874515395
0.005834917373462894	-0.007555947542160796	-8.512385658303697e-05	-0.001108770733121353
0.003537924218172314	-0.007198576409780197	0.001454056632888301	-0.005777203050829172
0.004082672820241172	0.0006982535221476005	-0.001996298892314415	-0.00646942804258361
3.670778719378429e-05	0.0004972763012718824	-0.0003144475620049918	-0.002771188922058358
0.002656358920874778	-0.0008659287897156964	0.001971218955518636	-0.00340136375392967
-0.004226807441257709	-0.005687846760644006	0.001831069427969502	-0.002421724938055066
-0.0039660474782268	-0.009110890208926786	0.002117011889527386	-0.00429195201553248
-0.002877399939221175	-0.007505852584020928	0.002382124640104026	-0.001469789934843833
0.0009547939961048297	-0.008059933152689939	-0.00118272301351732	-0.0002577049823311937
-0.001326664335718634	-0.009511634938293493	0.000886042012224415	-0.0002229005407525669
-0.005310890622009703	-0.001310003729819676	0.004142230165379234	0.0004597898137748605
-0.002453323441220921	0.005128850651837979	0.002366434977813512	-0.004070710600801886
-0.003311841895790479	0.01420911080425234	0.002661468363597084	-0.0008773684059111467
-0.002610661774461836	0.0202404957051863	-0.002427716257694101	0.0002529806967736152
0.003756336630028154	0.02166446302347814	-0.001764161469163209	-0.001565733914482126
0.0008523724369357694	0.01161649635879219	-0.001154461830619431	-0.0006295043329748227
0.004019886714806633	0.008194004235254425	-0.001458896447966596	0.00124581522796849
0.002828977078559748	0.005417554375444542	-0.004287543427134515	0.0003886587934515643
0.001426761141604107	0.004281874863731563	-0.001832199535591566	-0.003221520505804978
0.003765264240281673	0.004744009741418404	-0.00026764790134306	0.00247690122963344
0.003634783789417493	0.002924398527391369	-0.001182092860221545	0.00439454710508179
-0.002713898737958024	-0.006057977805259517	-0.001205072016283256	0.002401832081313976
-0.005901689771828941	-0.01289885691875087	-0.003095649940083109	0.0007530764403823571
-0.007355195917104191	-0.01706232043441516	-0.004232839282635896	0.0003821049890834188
-0.002111140399932419	-0.01997303087145466	-0.00406314655351141	-0.0003791282388563619
-7.350500575346191e-05	-0.01685956413920338	0.001989105453483701	0.004760670728147505
0.00328449659666727	-0.01735869699198538	0.00117842242584177	0.004548506801703755
0.00062125371452853	-0.02208624461855854	-0.0001713810246335051	0.006810891150588205
0.002150740026903479	-0.01122045256280061	0.0003169817182033838	0.008225111491209431
0.004911543087447691	-0.006169133345869089	0.003114812154094455	-0.004237588698190664
0.006512834255275176	-0.0042624360681439	0.002764433392550975	-0.01135700923595509
0.008727253674608996	0.007689609574388935	0.0006635525173625769	-0.01423468109870916
0.008096253890468114	0.01518566653386566	-0.001990505482958311	-0.01253445121754734
0.004266697834778618	0.01006034046138296	0.004734379450559393	-0.005627231365986106
0.002801404666182959	0.006267028857108816	-0.001772095006146267	-0.003233630438773635
0.0004593185718944964	0.003092852969849353	-0.002427427154944976	-0.00307730454493799
-0.002273434641393462	0.003820692239034995	-0.003931754071488022	-0.003840242569638068
-0.008318492659957401	0.002586521345494125	-0.001349551677163423	-0.004611458797191203
-0.02025904672460541	0.004061949340204318	-0.00326642763397488	-0.006523725954818999
-0.01255513717485957	0.004597719883686124	-0.0003107335865139583	-0.0002477264468336897
-0.01140431954042106	0.002409356592457401	0.001723945424848676	-0.002978483044045423
-0.006378579317824629	0.002301178242348961	-0.0004285088337055227	0.008224790509765639
-0.007455520472514422	-0.001685058889433095	0.002908915526436163	0.01071505272229127
-0.00636529051760364	-0.0014853312035334	-0.002772126432583503	0.009736841157130947
-0.00136225311981332	0.007857553309698791	0.0006147032627119072	0.00351138170141072
-0.001071738315371853	0.006270968086612699	-0.002373076714372186	-0.002835330420774018
0.0008384748180788042	0.002993912457932789	-0.002315504926775883	-0.005262105172754307
0.006055742049941857	0.001438967322589387	-0.004401500820918295	-0.002876773472439158
0.008249865896028582	0.001107982139115133	0.0003354237369544427	-0.003902087259390319
0.006581726986655368	-0.002118399948953039	-0.001499968140198445	0.0132908213634138
0.005035350329737292	-0.007754587687094895	0.001633661138403249	0.01768110386163767
0.005649612710652537	-0.002470788173599946	0.0004725068973039913	0.01075932888782258
0.004328969449066398	0.002917866598635687	0.0007849871341949971	-0.003363597964538023
-0.001640410333046791	0.0008269146576240022	0.0003804842281196322	-0.0007870884899656433
-0.008197959139209404	-0.005282568958567043	0.0009930583639780235	-0.0003962408793310505
-0.007654030241793998	-0.00139808088289672	0.0007763835091642037	-0.0003575642429210844
-0.006572942870164277	-0.001087108358544451	0.001888577956837035	-0.003526624218967895
-0.005396800179266181	0.01507311962400846	0.002313915894944884	-0.002585244081902583
-0.005635305349241208	0.02087321104852815	0.002636161356198566	-0.002713768864240439
0.0008781064160332489	-0.0005306264004455706	0.003858860003384771	-0.0004794120531290701
0.005275430679045318	-0.001338912725886384	0.003374309818546331	0.004958073545991593
0.003415844361088476	-0.003901265200962716	0.002127556457701818	0.00564651675270595
0.001978492930903411	-0.0009892503573695505	-0.001657119533312158	-0.001296398204927954
0.001760121500069289	-0.0005002246449069568	0.004756877199208068	-0.0003647941666102784
0.001756910378501322	-0.006666802427393932	0.005025065336538086	-0.0001735453430042767
-0.002825003291852712	-0.01306500917144859	0.00613016321498388	0.002309545941753219
-0.005400123175219085	-0.01094925319120898	0.0005804200430353436	-0.0004560052393133748
-0.001956730144242317	-0.008428378767987969	0.0006309875785584474	0.000786024590470762
0.006050600676633628	-0.006706275053258665	-0.003973594563590016	-3.266330845627736e-05
0.007571878517816672	-0.004468844975828464	-0.001195891389483736	-0.002213931174741706
0.009690474364937087	-0.002739820761043456	0.001557211240507789	-0.005837977282207709
0.01154246295808475	-0.007330315389993777	-0.004055916103643389	-0.00485539268894685
0.01202996168785215	-0.00488788641487554	-0.001730081410676358	-0.001028083142215259
0.00176219050908695	-0.001233534491596348	-0.007384551457845728	-0.0022423373971528
-0.001597684428523387	0.0009327388821297212	-0.01053242596262341	-0.004290587651851429
0.0002093452838139158	0.002216504674789063	-0.006108982305892125	-0.003037330472558116
-0.01464213218072822	7.563041860123175e-06	-6.678901862300853e-05	-0.00254269057404171
-0.02602361264617641	-0.001602304413881841	-0.0003071227667037115	0.003655520944149111
-0.01247880187536087	0.00171973104415031	-0.0007110405742876864	0.004135456549197535
-0.002570781246176956	0.002194014211878243	0.005493457509844714	0.006341824794574498
-0.007840027827099347	0.0008501681119797925	0.002654157846695286	0.005985481961632374
-0.01210708702430847	0.002996170773684672	0.002343209550090049	0.001173048684687947
-0.005541478725396578	0.003973106271068615	0.001743971319933214	0.001191766173822885
-0.005980555941570407	0.002920594954994763	0.002786860186416734	0.001265909099443224
-0.002181503774045775	0.005540093868359157	0.00664007575071615	0.001909512684767072
0.003719596354722352	0.006630517681307736	0.004176642307439227	0.002106896797915395
0.01005128951256499	0.007284600819387543	0.004336031537955987	0.001858924534700354
0.008248269973205784	0.002473221971788175	0.001084909902231481	-0.006647698169731471
0.009091025997574989	0.001619695887019687	0.003433168477984728	-0.0003132461001136137
0.00935164240330005	-0.002641469863455886	0.002172858915933975	0.0005899455202494647
0.006620443467218578	-0.001073408468467594	0.001748108679293019	0.000312207184208661
0.005703646658086379	0.001181366178700243	0.001752956689547676	0.0006824388530145338
0.009392888576028758	0.001635455901540336	-0.00304961906255985	0.00211671853947428
0.007629112406682266	-0.0006784043903919149	-0.003425677563955235	0.003899109827838947
0.007993797272028959	0.0006773826232452105	-0.005025076627407443	0.005190331692990139
0.006668782720314059	-0.0006321112341169773	-0.005100899308130164	0.01124600139047548
0.002311485991841087	-0.01001131734253212	-0.0005591289709880331	-0.004274947127794096
0.003472916359586245	-0.01321876341684219	-0.003644092949714905	-0.01443636149355055
0.004297090166827769	-0.009344577227568271	-0.0007769804630845875	-0.006645807596265203
0.003643198043560335	-0.008377741491604376	-0.001251300526538214	-4.554265637058617e-05
0.006905227737309906	-0.005623159634216748	0.002834124113179762	3.823185563228432e-05
0.006866241807969459	-0.006686548158329682	0.0009424403017790244	-0.002910068075656215
0.007472132456084901	-0.0005389358980241397	0.001395371272564808	-0.0009271806190297883
0.007567443036400628	0.006236125451865179	-0.0002705536739465727	-0.005146691296255133
0.004957014755103985	0.01579774739553037	-8.439328748964134e-05	-0.00388593768020345
0.005051036107688749	0.01992219669339274	-0.002068730508221943	0.002870451741353378
0.001595042361817792	0.01203380563545919	0.0003196674407822711	0.001282578978822697
-0.004326304338901383	0.0004480439738097066	0.00155489993197767	0.001375089487701595
-0.002960959060023011	-0.004618543856115163	8.213153525883956e-05	-0.001632393093525361
-0.003951375228130393	-0.003403816057090328	-0.0003729655322216043	4.386611418799497e-05
-0.009076172030511328	-6.307017116516775e-05	-0.0001823389990478299	0.003457516286088985
-0.01011242759746471	-0.0003311131585397614	0.0007676473764429348	8.855934239008246e-06
-0.01018283637581143	-0.0006418001147343091	-0.0004155745610631112	-0.0009092460050103128
-0.008183541558648085	0.001184132294983331	0.002164813556471256	-0.001857800312406037
-0.007152652564396386	0.002401985205508661	-0.0007915296430482886	-0.002824913515855269
-0.002776338892816097	0.0001288553678399116	-0.0003154564471332071	-0.001071024440396058
0.001321066947232175	-0.002550505183554933	-0.001663374963820694	0.001232484606336587
-0.0009451442672878599	0.005361341546515336	-0.001743875724400121	-0.003968093921353338
0.003582705754457396	0.00797021914747692	-0.003396906211376567	-0.0006900638002277155
0.002037769954334793	0.005971639207299982	-0.001899369847115776	-0.00206838229760013
0.0001357827772628866	0.004594074939382334	-0.004773461704417838	0.003877646206010616
-0.01179661276027559	0.002236764453197346	-0.002255647785648236	0.0008907562915837072
-0.003629635795745734	0.00712866782416537	0.001315780110646985	-0.00355065571945603
0.003211131503405334	0.0206205758800239	-0.0009063257922775381	-0.001327435782179664
0.0024899150190393	0.008130555392232319	-0.0001805145879183166	-0.001535847455801561
0.0001429268812971371	-0.004250166628167136	-0.0006386101611416977	0.004062572475976238
-0.0009590873522472027	-0.002279322322022389	0.0003229202485235489	0.008667484795776437
0.0002522294057962677	-0.004745416586500327	-0.0007659614172087005	0.003588792381164704
-0.001537691683271224	-0.009155146819818397	-0.003884488971456717	0.002788931822144924
-0.002628352881042623	-0.008727585837010284	-0.007151143160323281	0.000478505906782422
-0.01021277249754468	-0.01222365862276813	-0.002760987155244744	-0.0002921376740452917
-0.01933591031484475	-0.007197206282735513	0.0001940750366111963	4.451989508585912e-05
-0.01264971290405915	-0.006591059984417631	-0.0009377837346907827	-0.005303840600650032
-0.003279318750643345	0.0004607205715157273	0.0006323929941814116	-0.007371611985383837
0.004885534387280423	0.002117324329078678	-1.280163352511511e-05	-0.002844924280895274
0.001509616649413147	-0.0001257959650620541	-5.692282261710805e-05	-0.003687372973862047
0.002248501071011	-0.0021833911331516	0.001386873098120895	-0.003814099590216865
0.006424252326110287	-0.0019431126521978	0.003773398356497521	0.0002995565133864427
0.002440729521117525	-0.001019903266010377	0.001456991352452385	0.01933810772944626
-0.002764250045125894	-0.002555190131619745	0.002837095793904133	0.01248153810935774
0.003381560789245776	0.002622108180743527	-0.005511786406781284	-0.004716734160032035
0.003945332045124205	0.004296272094990585	-0.0009551959527690232	-0.002331621113350501
0.0003857962686484551	0.006228912363513545	-0.0005954607042827255	0.0007248723722079569
0.002491596604982594	0.01210709111465738	0.0008238936849901266	0.005155992280294394
0.001559590454623339	0.003494644213802871	0.001139049332840433	-0.005988511354512555
-0.003983158820065194	0.001180073817491	0.002070263422494295	-0.006732794399097305
-0.0004933763863977889	-0.004624748610065376	0.001696696984642853	0.001165505465893717
-0.002264760716582847	-0.006146201318539816	0.003848668620255455	0.009941265675759058
0.009546662425029617	-0.007297726376882351	-0.001475756679706385	0.009140892427105691
0.01558753941810917	-0.002581555079485179	-0.0004895073325083464	0.007429702881745399
0.01161954665410191	-0.004990600974608816	0.004652905503259963	-0.003348256561917011
0.01083732929811215	-0.001829323189930367	-0.0008521044889083163	-0.005610381899285668
0.006643870924177341	-0.0008112549943800447	0.00220933731033526	-0.008129669956832751
-0.001439634803700853	-0.00123961212151131	0.0003469501475403001	-0.007418081120776986
-0.004904043402993911	-0.0008253352390187668	0.001761928995119545	-0.005801395259268307
-0.001585793824762494	0.002764306602538605	-0.00104891165328438	-0.007796820308220788
-0.004199563804489772	0.004168362869439794	0.00218224319892244	-0.006952374239472575
-0.01093621790932518	-0.002118096244269434	0.005610700329728563	0.001297345595779576
-0.02742406208932306	-0.007187137547233912	-0.0007719918884904906	-0.00270909738027645
-0.01583073354345495	-0.004493672845994026	-0.0001823852942937399	-0.001424039298414981
-0.00704895995156894	-0.001242556653989682	-0.00199308010869108	0.002836531125268105
-0.009681069460856609	0.003978916257756072	-0.0008112101594239158	-0.00110071917973923
-0.0001353387046940243	-0.0001834922101375947	-0.0001833648912374458	-0.0001343271223521427
-0.0001828766282452309	0.0008820589969288673	0.0002402920251970713	0.002536357791228843
0.002208557728369265	-0.001556520562645516	0.0007110874412074492	0.005636090616348721
0.002740699170712722	-0.001958265430700921	0.0001184473233594783	0.005714953450173944
0.005008036019846899	-0.005898648247908341	-0.002020342710831039	-0.001508429251811734
0.003911238858969933	-0.001840208863329709	-0.000987054142189114	0.001490519030417649
-0.002086784922865957	-0.005361098807442066	0.004440366996122952	0.003267219565880005
-0.002354747544162132	-0.00167484453661775	0.007366150468485612	0.004133437410328463
-0.002553538098370437	-0.004695048750462577	0.004057156215946988	0.002347802668032413
0.0008987563346393661	-0.004393689863755359	0.003865733720467827	0.01309446582388048
0.007114497041351075	0.0002268954070247133	-0.0003981936060490548	-0.0003685825788440203
0.00909947428359901	0.0005850135386213304	0.0002947371583482733	-0.01742781697238667
0.008694860286318348	0.002800951430308104	0.001919533821736932	-0.01148766702717894
0.008825851432935211	0.002867150388721317	-0.001774519240510877	-0.009760978535913539
0.009514240010195687	0.002785588303525305	-0.001077426797954939	-0.00984557174373491
0.004343146404618053	0.00194119682787283	0.001724504918807285	-0.003644095530954191
0.007315781701647557	0.002247641227091814	0.002057330053016801	-0.001564609945025526
0.006066451888935202	0.004008647052934037	0.002582697096243584	-0.001893598280890527
0.003637145605284329	0.00257614839882022	0.003368064401079405	0.0004568505265449273
0.007668806492444741	0.001647470764142116	0.0009466495885181122	0.00165812711298572
0.0006254286866316551	0.001143451746162093	0.001075329112705596	0.001602013658661072
0.001721408594844503	-0.006051526788155219	0.001033755716458259	0.005506175432966325
-0.003905199571060787	-0.004642694642684283	-0.005514802728281272	0.005424784527423502
-0.005666925517083012	0.001462862611411443	-0.004954235973633206	0.002123160983181318
-0.003423958120102316	0.00499993080049559	-0.001467466312424796	0.002477635446500518
-0.001400108750929686	-0.002382150003123097	0.000869236734133128	0.003169071255608728
9.619640019591453e-05	0.001394675765668705	0.001143810699598138	0.002639564293007391
0.004353354428588905	0.008895312463842692	-0.0003389434761988365	-0.00113683300868656
2.021916015646328e-05	0.01066630932104736	-0.001197329267454393	-0.001971909258442877
-0.003305694222452738	0.01252174107316724	-0.0003652396873310199	0.002683854930938381
-0.00131641070333627	0.0003617522817459051	-0.00119760516908992	-0.001172949080427534
-0.003613634411821544	-0.004089064860704762	0.001046852486118049	0.0004075371067246047
-0.001596620182555134	-0.007958370350494718	-0.0006699169156734794	0.000457270663004829
0.002680772338033371	-0.008055871680372036	-7.549631733389893e-05	0.01154999326022194
0.003864071213954299	-0.002066439763781131	-0.004497533992526287	0.01263792837549283
0.01047616238932291	0.002477468536632731	0.0003490940840723242	0.00523481776905161
0.002861970924743269	0.00333751856538534	-0.005308908788693104	-0.003123894694604201
0.004993518602349352	0.006389905258978891	-0.003663292721856742	-0.004538878951654353
0.003394863666419362	0.003594320543800183	-0.002708600691199188	0.0005578610739328994
0.004800645920490916	0.008593785969825622	-0.004144640877967205	-0.002952596835916105
0.00396133053424644	0.008759494110071131	-0.0007229297272152699	-0.0002437130463045841
0.002988178652839767	-0.001977872088813947	-0.0002162719596714296	0.01822705286547781
0.002055790767851782	0.00133423621180007	0.00166505471074388	0.007110270242232853
-0.002658786528538162	-0.0008136974905312646	0.0003143978977251599	-0.003655370633704488
-0.001274253944981257	-0.002584834930545089	0.001933164329090344	0.003552541892093546
-0.004132730187942676	-0.0007726071760547043	-0.003437477620279955	-9.353647543564542e-05
-0.004246343740786712	-0.00491171701753861	-0.001105050891709302	0.00162412682239788
-0.005193431539211045	-0.002275722029594067	-0.002117183906944458	-0.005287605537615415
-0.01227458494530839	-0.006088155913577965	0.001646585984665411	-0.007789464626524189
-0.01726767729666957	-0.0128563195396688	0.001815836194335625	-0.006168328345473601
-0.0149976927377436	-0.01056608149660091	-0.002823375857270855	-0.003426877728660152
-0.01181996169728939	0.0006678702730906951	-0.005195767064747815	-0.002970354167359499
-0.007815146079723388	0.007453403700687252	-0.001839912776494377	-0.005449437832935069
-0.006860883483936063	0.0003626067605579677	-0.0003905693471077307	0.003434455838041557
-0.007458955248563145	-0.002643869621197187	7.2098072574582e-05	0.006331899048558381
-0.005091078735436887	-0.003517816338989586	-0.001893236010156908	0.00207442094218491
-0.004641149480038978	-0.005182813576035952	-0.003405225336062476	-0.002231621768986999
-0.000730790762981181	-0.00608312449612914	-0.003345641090571295	-0.003775065101902438
-0.007293770229401492	-0.005872762169468189	0.004551209928573142	-0.002450339448531689
-0.005268238934646282	-0.006614108280282691	0.002093146006115467	-0.001330605901125844
-0.00186882833685115	-0.004557672150275327	-0.0007279997578361806	-0.001130234569864511
0.001325146335045674	0.002519229320715429	-0.001652240810029422	-0.003332123706820091
0.0007447979878525999	0.002190184218162626	0.003696140684889319	-0.00394127351410152
0.003607301970603102	0.004366209942289558	0.00525026901482359	-0.0007243669400739934
0.008075118277873942	0.009548992437597263	0.0008736947641902236	-0.003748656960803303
0.008810281838796197	0.007910168208782629	0.001843479877613223	-0.0009982199825327928
0.007260737451478712	0.00549179838414034	0.002740306841369904	0.001439779628448634
0.004042694011979812	0.007830705759477476	0.0006333960631324632	-0.002295723882228913
0.007889918082221295	0.009389491044104669	0.003484391311986761	0.0006743728669981895
0.003785305368648149	0.007159559517611667	0.003898712343654879	-0.0008692670942923817
0.003738511790669694	0.008701930463688452	6.577869005704316e-05	0.00230458814772371
0.00583082777217896	0.0009737445011457736	-0.0009358723523833809	-0.002552755137508498
0.006351011075594108	0.003966565323747141	-0.002660239022367406	-0.0009562834385771791
0.004931901590364271	0.003582214903355421	0.003993726451495452	0.001079798900212549
0.00580830398628569	0.0002122754852086249	0.0006203873241895931	0.004245565404827042
0.005723931966564249	0.003401709974187202	-0.005226368913888881	0.005181846622302182
0.005028038212200911	0.00121518160734335	-0.006967922078817283	0.01294518463914594
0.002084117711353604	-0.001872592530698022	-0.004641703333739531	-0.002343390042302864
0.00638086878278723	-0.005988948851931095	-0.001273549879674921	-0.008535181384493308
0.002898787014527299	-0.007074820495488458	-0.001980858258615841	-0.01218484338416405
0.005701705004098255	-0.00405465020202718	0.001356790539084309	-0.002368618369331176
0.003627783948469404	-0.004382313175700257	-0.0001637310340341278	-0.003862246681805819
0.001004481215589286	-0.004200041217271748	0.0004890882830612932	-0.003613492521673967
-0.002466413707347234	-0.003224501953087837	-5.81147746954598e-05	0.002724134319044614
-0.002791808838936942	-0.0007213547452811977	-0.0004803000801422986	0.00126744690313557
-0.005564431960665897	-0.0006270024097238247	-0.001122493348771083	0.001320302721804162
-0.004968269413660458	-0.003251306126427534	-0.002186328435408584	0.003014582311841863
-0.01138110505100749	-0.003223913087294155	0.004405712370426539	0.001702058316250045
-0.0141110543123986	-0.007638783428677327	0.003447770412586106	0.002463010783437001
-0.0188004614024776	-0.002540533547419365	0.000962751770722479	0.003362417356930889
-0.007169717901177537	-0.009871098600424613	0.001285670181236624	0.001265309177469862
-0.001346350481732849	-0.01187237026300881	0.003064021711132316	0.0002173165522548324
-0.003640621866664102	-0.01114920989799801	0.004876761215446128	0.006489683525796771
0.002673562159878318	-0.005913378363860858	0.004707845335011517	0.001999674719758492
0.007674473055032407	-0.001804549345631972	-8.51490242986894e-06	0.001573872959769451
0.004757824705767204	0.0115832275325154	0.00125180069799218	0.001190055271576148
0.002447350874934226	0.0163076662862048	0.002036749526198809	0.0004595987019872344
0.004495103454140925	0.005510091512891183	-0.001262939392848075	-0.003753580121274571
0.006769651047849361	-0.001629716086415224	-3.991272198495806e-05	-0.002533784568822169
0.009919833983529447	0.003908949670939131	0.0002866183232822855	-0.004624733720564585
0.01330766289180156	0.006533735724057966	-0.0007871851753918931	-0.00621725602888954
0.006817289075414563	0.003206164424762923	0.002452785616672315	-0.007235803335068265
-0.002577552592304766	0.004555147413972014	-0.002699601670992197	-0.004980067930178375
-0.003996149768560833	0.002692788348891216	0.003522223360911901	0.007249962247883507
-0.004076931635201622	0.004257637466428818	0.006616866085032013	0.01573766536002695
-0.00493088478223619	0.008123820623497336	0.004804079699912978	0.001244478062309569
-1.822578658873803e-05	0.005931249373603392	-0.0004156438600296897	-0.004067177753006158
-0.001466499386966151	0.001161459267154283	0.002058914035731172	-0.0009850257482946171
-0.01447679803894877	-0.003566109662436606	0.002510693025036783	0.001450468598486406
-0.01564956413785693	-0.004157454940113952	0.00766274059931157	0.003533409954495885
-0.004963461526673024	-0.002147731966474126	0.002839283810789238	0.002535301049326437
3.128626988804547e-05	0.000157723511629716	-0.00145489984516694	-5.468742575052452e-05
-0.001708830611640261	-0.003854427914245289	-0.001644629961338995	0.002076406453292974
-0.005025458400645215	-0.01121523653423734	0.0008469558085078646	0.005909054184427997
-1.183507357479976e-05	-0.007791521384328448	-0.003092238869381968	0.004150883147766441
-0.002549109562771532	0.000886316392782484	-0.00709546292893261	-0.00259035118255502
-0.007375656331226644	0.001567947276981851	-0.006426027244430897	-0.004648842466546468
-0.007842190120192691	0.000920348320146316	-0.006563639897913343	-0.002614517516350871
-0.00446105330872105	-0.0003917031713713745	-0.003781628474261399	-0.000348271798743047
0.003094134052313754	0.001606495361806542	-0.005155760926688666	0.0009314269824759957
0.003031850466855199	0.002940937937831699	-0.001764718864835362	-0.00168781774659368
0.006165145136937747	0.004625070058110781	-0.002536056710047681	-0.0005392727766437147
0.009579708514208489	0.007882678965086595	0.00217523273288013	-0.0006129359553075218
0.007739794902252086	0.004243235039223778	-0.001777992093310985	0.003163319954464759
0.01149514648766054	0.0005646568519533825	0.001311283185748552	0.009860158984942325
0.01039152006333102	-0.001386421026079429	-0.002201798325239551	0.004598193843710553
0.01092578387648061	0.0004213647659344072	0.001835690323857042	0.004312416178457511
0.005894403683193301	0.007278711491703909	-0.001065459443586014	-0.00119805641069932
0.00808652628491729	0.01333174574403949	-0.0009208400320864517	-0.002472201134278647
0.008201772603822689	0.009399862568128173	-0.005048939990889373	-0.002431021054321974
0.007880704919206234	-0.0005770052279082807	-0.003260983482158094	-0.002301786817515904
-0.004138773169156514	-0.002440953223131827	9.460656238715983e-05	-0.004284986212944009
-0.001189757359851739	-0.003025189072204741	0.0004558593455601913	-5.968207895040521e-05
0.001670196246284733	-0.006586509507559964	-0.003240946745678412	-0.002267701364307022
0.0001292953383162169	-0.004535356505205611	-0.001178825827517468	-0.001298452725967942
0.002571286581710559	-0.005903380562973653	-0.001141359843441161	-0.003996347508071652
0.003084996655427003	-0.008479811502669223	0.0001213656889824286	-0.002091716077120518
0.001519940305900912	-0.004881739281311321	0.004169081970919625	-0.001212258410376359
0.002425763671714766	-0.003198922230052512	0.004575392433813975	-0.003352189509172085
-0.0002423819133498797	0.001932316372279888	0.006170224078031434	-0.001092530983580542
0.001753414382175651	0.003324931889767123	0.004477684930713858	-0.004986446039122209
-0.004858229836708128	0.0007373321280939746	0.004903458729597161	-0.003343308937404885
-0.00529204236631319	0.007104049688340873	0.0027308677544676	-0.009001685479826934
-0.001909889895369602	0.005061253916860674	0.002297136858994057	-0.004688904900420193
-0.003698874044649984	0.005989170674006809	0.001364144844558489	-0.006269425534363327
-0.001473399385095144	-0.0005930296967283338	-0.0002945440318440313	-0.005403868760345737
-0.006264796516823879	-0.006096756718728546	-0.001528061796463815	0.0009308785012621244
-0.005191061043858246	-0.008613487686805943	-9.507242518665388e-05	-0.002369059867090455
0.0001359613538995505	-0.01154325734938393	0.0001450741945396508	0.001044215240768707
0.001854193154071254	-0.00583790398457754	-0.0001016284973399146	0.007314591396074719
0.001142248823748437	-0.005464823891443487	-0.002501848319573972	0.0031953140478643
0.0007587800625401677	-0.00746272344727828	-0.004961483803945301	0.0005036080038939022
0.003049222877199738	-0.01366558361049537	-0.004823698342333193	0.002721226110987967
0.002033254089454948	-0.006702493924527046	-0.002763358458595753	0.006773985497077635
0.004013571071462738	-0.00502978335194249	-0.006519969391524236	0.0001257679048065797
0.004419354694470539	0.003081152178478643	-0.0006583337120690343	0.006393143168265953
0.005000281313197711	0.003044425478998037	0.00162958369891992	0.00981972062876869
-0.000944490929620258	0.0001643923940669444	0.002407707698710427	-0.008052981449685057
-0.003925670807132898	-0.001875227632170049	0.002482516637420815	-0.01088905461654095
-0.001851925868994297	-0.002802356338101312	0.002449492986185961	0.001622618111402857
0.0001326206441471243	0.001009162309880774	0.002260254395780262	0.006338776396603628
-0.003613305702585786	-0.005751313183006115	0.0009170503518857744	0.003234865961387113
-0.004778207270085068	-0.009260510906602456	0.0009166015618858336	6.190422887720774e-05
-0.00556343952471166	-0.008666443425199802	0.0008347041289315936	-0.001076797916757664
-0.009830331121494094	-0.01070388107813718	0.004505309281580145	0.0008671612079780413
-0.007707669781402255	-0.007193867280668483	-0.001920074154881246	-0.0004207303049160653
-0.003574173156776435	-0.00860698767438091	-0.008089787862473935	0.001847130564572046
-0.0009156888726413132	0.000578432367858226	-0.01368846591785586	0.002788637268058583
-0.002259174218096145	0.008036354488778664	-0.0019926315028598	0.00308788263532813
-0.005449348182109661	0.02313905697848042	-0.001661350956701829	0.003846166564886237
-0.001944200093558338	0.02381938163315169	0.002450933702485899	-0.0001043242259378057
-0.001847580227857083	0.01449825780868596	-0.0007776569460633377	0.001923597965623743
-0.003033938466643137	0.01884442003807755	0.002009034415454096	0.001929492488555491
-0.0003548052716192598	0.02155485233454506	0.003801016483492692	0.00169847616056886
-0.005186854072514097	0.006609875182726945	0.0006280357714958569	-0.0001771706090896818
0.000842329541654851	0.002854460604782723	-0.001749228904748	0.0006587280627849413
0.0003065561671404141	0.003200489777746248	-0.003965985092743798	3.350828580134384e-05
0.002061478433057525	0.003931855147922178	-0.002385002191213621	0.0007961504371784606
0.001123406943693778	-0.002511374510965202	-0.001206976964359386	0.001297843236962289
-0.003802268023505664	-0.006155967758860493	-0.00532795063869577	-0.003713626244344341
-0.005857773881127716	-0.005957475368536436	0.001229170113116644	-0.001395366562519917
-0.005629236019746782	0.001453440078122507	0.002417642597148467	-0.005777001749992202
-0.002909475237091754	0.005724982993551844	0.003160177187647553	-0.001014685994254017
-0.000793873353496369	0.005528269724805039	0.00592493685268526	-0.001226471302672443
-0.0007344491594535452	0.004414961886456615	0.003610015216068547	-0.00259950614622583
0.001578185215343106	0.0003491939870393039	0.0104684765432803	0.0006973092434726778
0.001301781819256957	0.01019335770068424	0.008541997987349588	0.005500718614306409
0.004828036028032502	0.006169263261649468	0.005066084281955579	0.001318235993570999
-0.0002457885736138076	-0.003109724350380111	-0.001344560364969988	-0.001323495681215912
0.002913619798598377	-0.007018323712416137	0.001033560529770675	-0.005525692728121365
0.00243826049392782	-0.002645480294476327	-0.001282332378219181	-0.002829671406865048
0.00451042881899106	-0.002447810938404528	-0.0008459671764594739	-0.001588852780288918
0.005866105977307524	-0.001688572623135675	2.789470308550682e-05	0.004083290000472122
0.008825344751604436	-0.006488227923257304	-0.001200796814394261	-0.00310831376493188
0.0018288813942149	-0.007914392335405866	0.001940081660209964	0.003057034238144494
0.005068974930189234	-0.01022563062168512	0.004126156216951738	0.01653379142482887
0.002230961650606161	-0.009379063471176707	0.003474614588687641	0.01309959485128082
-0.001752502591608311	-0.01065233331235207	-0.001560688693975935	-0.004567673534209424
-0.00565077870994786	-0.003674500041184084	-0.004894802632644344	-0.00673072967991793
-0.00239459008075423	-0.004462081911246658	-0.004208531925541921	-0.001088606850797266
-0.0002354513427584882	-0.00208192452566193	0.004417553627278291	0.002090269388869967
-0.001095769893401344	-0.008390824285020188	-0.004642667455060257	-0.002489764157167613
-0.004310513446095053	-0.01406603953089571	-0.00215664865542761	-0.009047129933289242
0.0009100466706968983	-0.008830437108577716	-0.001731310126627061	-0.003148880627147034
0.002027491961513968	-0.001072201920031531	-0.0004803185152193539	-0.0009188941632114809
0.004117492994254505	0.004539305268126383	0.001647640850741263	0.007251525117946621
0.006973125036182345	0.007386856502300973	0.002336665329315956	-0.01153210383927791
0.006300625458797635	0.007981490701533414	0.0002275848530026184	-0.0116025818839539
0.001753987260528391	0.01005561195335366	-0.0009858709287750417	-0.007396981796860042
0.003996774691204595	0.01021701888908103	0.001526596853944111	0.0005757179362366756
0.009232062364491238	0.01181456347910118	0.0013017617468935	0.002293204112535096
0.007206371510869596	-0.002549052911216603	0.002366573635378456	0.001022053282188432
-0.0001168427324501925	-0.009449947022529867	-0.001731943403246699	-0.0003288171113692772
-0.005190973074096253	-0.003943375470098744	-0.002036934207029507	-0.0008574927512346444
-0.003259998325384783	-0.004387997389534441	-8.689875283793458e-05	-0.0006002883182983752
0.0004494300074336961	0.0007458550188779809	-0.00158384940494045	-0.0003316158538004755
-0.005393933649273023	-0.002809367597060288	0.001115362010338015	0.001128916076375458
-0.006080259555770666	-0.0006181506629319831	-0.0007170870069444471	0.002620766083455414
-0.01257967668278162	0.003013576887210129	-0.009113651479593908	-0.001674015089774427
-0.02634656310278275	0.001382092934528834	-0.003443575784033741	0.001757604585260293
-0.01406118161258208	-0.0004689051411504809	-0.005362616351487394	0.00588537904553459
-0.002261488655006385	0.001012342309605303	-0.004272883297388931	0.003757065665967872
-0.003690638206261404	-1.998916863076661e-05	-0.0009077000819477128	-4.616916779240721e-05
0.001450210147422273	0.004476858874835798	-0.001485679251089309	0.001450358886957122
0.003986460702933121	0.002065401042103205	0.002970209783261558	-0.003073818857185317
0.008245111307813569	0.003431509993446377	0.001641574410375484	0.0003216913097851648
0.004254240080182941	0.01011374765705403	-0.001436488284069605	-0.0001596423232784168
0.001647531892241859	0.01870374109787393	-0.006815739319998871	-0.001831604511593898
-0.0008937549519731869	0.02182342547349197	-0.001042106843810814	0.005810666216555837
0.001967390036645437	0.01867827517744862	0.003241076797903049	0.01065450101164787
0.000373312363814486	0.0008742743545256107	0.0037655825093906	0.01122123075497997
0.008045588025578502	0.001978969208030484	0.004606194352133707	0.000739608274034478
0.007770535511372886	-0.0001400167231016677	0.001807342992581827	-0.001444158878342587
0.005996364318357711	-0.003220582273227118	0.0006944286608072557	-0.00119883669125637
0.007217885170995197	-0.01812668095956204	-7.193930152572762e-06	-2.052597779764477e-05
0.008343702762404702	-0.01321276348511705	0.003738500622337534	-0.001726351055552167
0.006153041943409075	-0.015787555804769	0.003832991725948476	-0.005559913892676345
0.003720361575338438	-0.01691966503359297	0.001260911326145735	0.001362316743998086
0.006388860354891142	-0.01539746873124873	-0.003491441805987359	-0.003637436570464852
0.004926203588850008	-0.00823365883628973	-0.006424987680915853	0.002227884000975111
0.006360621880599042	-0.00358633491471054	0.0003429691694817211	0.00123578027260272
-7.34241129741969e-05	0.014309850582647	0.003248794177839561	0.003521599232658287
-0.001388851387363516	0.01712672022942536	0.003593001004760179	-0.002862804674965322
0.002636416771507466	0.01018976224743138	0.004477624148881205	-0.008119388900019878
0.001283892479377571	0.008071217066060612	0.001512452889615866	-0.005568932104860187
-0.0003373284630758291	0.007797729857236079	0.003161931407919793	0.002546705124212102
-0.008358890133382441	0.0009843087659625312	0.0009962770597217133	-0.003103142431877143
-0.00511776495926419	-0.0092007085725078	0.0004608377315713632	0.009343050759017176
0.0001873789318062171	-0.003043752357397966	-0.0001040365852025388	0.01518757911886224
0.003096156550384146	-0.002007850139347114	-0.005813215452077083	-0.0003541790254785849
0.006543218456008351	0.002162841895932847	-0.002159982075007692	-0.004296172092460829
0.007480822886743423	0.003799989523575588	-0.00223012363397751	-0.005486089186955408
0.004374775871317312	-0.0007984953867490462	-0.001092154702927239	-0.002042067493285741
0.003434456394994549	-0.002571453242725841	-0.002719571192755764	-0.0004248993693404923
0.001595350006908696	-0.005883069113716844	-0.002355849780722939	4.071961844360095e-05
0.001725909064951399	-0.006109038644953953	-0.003854843581598346	-0.003749100815424808
0.0003394603617277355	-0.005833025463677474	-0.002454124458836119	-0.00210606474938828
-0.004305567462344062	-0.006603934130450571	-0.000965756455044014	0.0001450937705257821
-0.007232606933012217	-0.005992028444007294	0.002075983825694243	-0.00532344196715522
-0.004801970332675153	0.006435270984696144	-0.0001440266779737291	-0.00308592316357326
-0.00427758608729322	0.0117058567576847	-0.0007196338282624276	-0.006142555969783014
-0.002384359903644834	0.01191492953403001	0.0005854646913437103	-0.00410139808973321
-0.003379502828227204	-0.001025845407710914	0.002855915378492067	-0.001034279485526263
-0.008338817786644952	-0.009653175270646538	0.007736803298419309	0.00687935226968015
-0.004065977068825806	-0.007930796509618095	0.007485783489483514	0.003799672538468084
-0.0003819697094317812	-0.008464814104135365	0.005786750808033871	0.002554682946268942
0.0001646361608562555	-0.004505382039923766	0.0007829148711507993	-0.0002734785852460624
-0.003224588112873571	-0.005260480505567025	0.001370102286246484	-0.0003319202705967368
-0.0008437221820571595	-0.002516608428380434	0.00459461481506541	7.583674442901329e-05
0.0006084054457231424	-0.002462920245684584	0.001880168770003547	0.002687594782921097
0.001419258533353597	0.003369902841933314	0.003157235244048815	-0.003315822441936913
0.002525930250114052	0.0005097118712610612	-0.000233794872566806	-0.0002838682654994135
-0.00669159543650184	0.004132361326453711	-0.002352667330808428	0.003606796356909195
-0.005280486777274569	0.003508163548327899	0.001771081458386161	-0.001018109618769258
-0.002853408768703546	-1.837549257045315e-05	0.000951951431160702	0.001068935394126282
-0.0006947054007534513	0.0006028746339042263	0.001472907990482398	0.002391754631673019
0.001957276885045849	-0.004026676106424874	-0.001677865592248742	-0.0009912743853427186
0.004560965929253979	-0.002699666467024991	0.001013689772346578	-0.002246415406018922
-0.004742614798989635	-0.00589389477319995	-0.0002540896494796552	0.001600763135613914
-0.005726012104391212	-0.009440909013820772	-0.004506947668169265	0.01009373638314498
-0.01058760338360104	-0.004198323304557112	-0.003053947911614074	0.007753778006813604
-0.009386899765051322	-0.0003797970726237701	-0.00445674731441648	0.005669398618622336
-0.005809094477327218	-0.001061669040401648	-0.007535963789562089	-0.004707798141544707
-0.004524233409619017	-0.003873926053403516	-0.003433479582740986	-0.01920229893255155
-0.004520194536844665	0.002421842093067893	-0.003217983684110796	-0.01460615546260821
0.001647277130125296	-0.0001579079718953721	-0.003577501270782453	-0.004581485296021605
0.001299157710082667	0.001745410584570938	-0.003252164185050819	-0.001200836991372593
0.0005952250022177107	0.0008312574284193025	-0.003497526816161186	0.001020629635349652
-0.001720540255275495	0.0003339197701129167	-0.00289459823902981	0.0001080058763421334
0.004594540341789564	-0.00156688026226363	-0.0001742911549617059	-0.001415666624100506
0.002338806882806815	-0.001892156155032483	0.002018505039581418	-0.001020434862133131
0.004591363712251669	-0.007362920443179265	-0.003742238293663611	-0.003911144851845042
-0.006097905188234194	-0.004857618812729418	-0.003091542406109639	-0.0006306740247083901
-0.0001063946918602652	-0.001988734270226769	0.001897328537589892	0.003795600658499202
0.002680088858532236	0.003540841558492722	0.003583989370961893	0.001957508632956219
-0.003180058558998938	0.007969556830901583	0.002622368407089963	-0.0001964191940164956
-0.005024956845637019	0.007823151621383036	0.001942180174716313	-0.002152926832550057
0.002428394730870632	0.005707068373699494	-0.001612303365921793	-0.001137936702656648
0.001852736011936242	0.006949491336798904	-0.0008648812716153628	0.002240669021093873
0.005038599524448594	0.01169302128346784	-0.0004470584084373961	0.00144319742208119
0.00550378338274387	0.0118118683579942	-0.00150496655845762	0.002384905833305384
0.001441852082215863	0.01043363472878212	-0.0006667892186132412	0.001286381729357554
0.001195279431987339	0.009568158230476763	0.001692341601112725	-0.001089188184250995
-0.003560466382691625	0.0009038884529715076	0.000492349422255999	0.004209594386441505
-0.007738219931103614	-0.002851043359065132	0.006471512590954734	0.003997468760831233
-0.004128240346894316	-0.01336677530240723	0.004624581790575166	0.005091477692992962
0.005332532224256456	-0.01077700541844699	0.002088275141784867	-0.0001926697653922006
0.005596248732695971	-0.00652045067299005	0.002791088079429791	0.003172871928533174
0.005661389933720411	-0.003748083436883067	0.002180585358784096	0.0005535351625538489
0.005460737754028132	-0.007053642750745812	0.00277335210455688	0.003271497402707492
0.0003828772445605838	-0.006106285681959979	0.004235871574371373	0.004760141523094362
0.003142082849274169	0.004483244445191364	0.002262559588628135	0.001909849388855224
0.0009789557286940993	0.007301344197382828	0.0007283257990602569	-0.001189736115940137
0.00323998012503154	0.0255497576998054	-0.005478689345927599	-0.0009566307949917993
0.006921136718445035	0.03832769350300317	-0.007622993988634159	0.000190413293833743
0.0001609436831294242	0.03216648827194019	-0.003301070755149704	-0.001036718459668904
0.0009887163937123886	0.02153443957485949	-0.00456972275653121	-0.002411232167450915
0.003263705570784524	0.01141238478385197	0.001031677204230531	-0.0004518720143095284
0.003078325999401121	0.003745302223838981	0.002232399867637311	-0.0007428737473103156
0.001882189665992464	-0.002277308323745329	0.002058434242516047	0.00160722911075661
0.001354126011137182	-0.001665853653288621	-0.001353036839443066	0.006262265972413403
0.0001106459746977787	0.0001612274657369983	0.002388399834997356	0.002543943631574447
-0.004231584878289288	-0.00246350810875051	-0.00291217670708679	-0.0007762672775200261
-9.104346915073565e-07	-0.001991054387516122	0.001815891362694685	-0.00493151547185951
-0.001304543893317328	0.002073248077027886	0.0008643898048970363	-0.003665791742807499
-0.002563246895148326	0.006030755205444299	-0.002523411134149285	-0.003552167634193276
-0.00580293203656904	-0.004899161505216299	0.0008081244003972484	-0.0004710843848903064
-0.007974418450315636	-0.02073305935362554	0.002119521677955934	0.006021505648531297
-0.004268905020625899	-0.03107310220890025	0.006658869965996626	0.02158527864689257
-0.005803272124546303	-0.03440666174950271	-0.0007227205652866214	0.009674866459856173
-0.004764967884342303	-0.02895200136825952	-0.003183655792065582	-0.005085023054605813
0.002071628680617655	-0.02000365901881861	-0.003987427509782116	-0.002151464734658479
0.003281756991455024	-0.01139058437843782	-0.001426112976314445	-0.001061345348300168
0.009655827882631829	-0.009414227297447926	-0.001701214195828209	-0.0002624971685382759
0.01112657504131671	-0.007443139875019484	-0.002222990455556263	-0.00289433905343691
0.004909601824009806	-0.002449106241457679	0.001764152217908472	0.000766785393277604
0.003325965092072411	-0.002823729669175937	-0.0008817244170352804	-0.0001889957834162742
0.004347418067363197	-0.003012735612926844	-0.001588126395590092	-0.002235421921937886
0.008997188349631976	0.000927069562435561	-0.0005085690910871545	-0.002720079366093678
0.001871501744311192	0.001923252904505427	-0.0004295265278910185	-0.002361858695566412
-0.001484440727468005	-0.004459464779271025	-0.002144640989089667	-0.003446422940246073
-0.0004728826702252608	-0.001450151369860795	0.001131369504830032	-0.001492578037567532
0.001871252592030075	1.845173799688826e-05	5.151757459338127e-05	-0.001553917768081057
-0.000496809754410354	0.001392738596506691	0.001926706850290383	-0.0003183788307390735
-0.008830404839602266	0.0007241537113010796	0.003274017795075864	-0.0006395458396095651
-0.007208477655548181	-0.005569347408204747	0.005033293648730609	-0.004056661008559
9.67840641030858e-05	0.002051218256009314	0.002860311101506067	0.0003993703608064787
0.003946140620232967	0.007343725394207184	0.003437071682541554	-0.004777167209829259
0.00243818056769964	0.008911934761528004	0.000989582855601421	-0.003703053601802416
0.00590479078801631	0.008793032358295936	0.0008706466168354332	0.0008181143460993666
0.003830771398436313	0.007982396625183396	0.004272037219358761	-0.002318807225061708
0.0002150321944459368	0.002577526667920653	0.001545181925896935	-0.003179281980020156
0.0001215542445175319	0.001063672242769325	-0.003992170327044802	0.01180155822903411
0.005265443046697928	0.005759054267477834	-0.003081488540746187	0.005173751084944639
0.002386636168325712	0.005533939241600793	-0.005148366878391293	-0.001310481711356341
-0.007574834534857386	0.004445050544026524	-0.003701281624892678	0.009621390005801414
-0.01173415625380644	0.006065973371169838	-0.002279732697471248	0.007775900998824237
-0.001997466293085204	0.004995661141254756	0.0008187480888951177	-0.01556184925066702
-0.0004462724157134093	0.00470530672639965	0.002143190416654913	-0.01445913345727341
0.0007371610567984109	0.001310353962519525	0.002408381368036966	-0.003799442763789499
-0.005252260276566349	-0.003442388234623692	-0.0005807378299076783	-0.003228306710301454
-0.004236638579579797	-0.002978788057229858	0.003041456972432284	-0.003183336374593539
-0.003734035613684925	0.000732028611673141	0.001766068659448154	-0.003689835143050575
0.00410544797306294	-0.0005516690125049683	-0.0001057299736726573	-0.003275676228037538
0.0103514309684287	0.005130630718231748	0.0002560753267223986	0.001308734124462831
0.01456557774449928	0.002893981803581981	-0.003488923570978482	-0.001496253691271626
0.01345532019914642	0.0005155028089069893	-0.001823835278499196	0.00134229577946697
0.005739747420437639	0.0003341390999574594	-0.003333462159421672	-0.0008673638406140643
0.00745734816883642	0.004125780116336115	0.0006594449192422382	0.00179822267536723
0.007750581418460638	0.004416932919341932	0.0001278579270184213	0.00115554328060142
0.000372498427367975	0.003775714337501635	0.0007615975146180333	-0.007056280518071309
-0.002232665260710612	0.0003833525722807169	-0.001241280318393959	-0.002776550192922027
-0.006527059251381278	0.0001843169173911779	0.001132453362926973	-0.002019988154984803
-0.0210204336994492	-0.0002779965088133824	0.00737499077661988	0.003043999399032694
-0.03935027176152178	-0.005039320409840312	0.008183318200924834	0.004015252162722451
-0.02254081927125519	-0.004472458104470148	0.004795049976232501	0.0004029067684769675
-0.008693510643438603	0.003786094454363201	0.001085581781656221	0.002959646083906022
-0.00644178088841859	0.01204877257800089	0.000173697153583672	0.001833198457888284
-0.009954066941555709	0.005446835017762251	-0.005989319031758662	0.0006642999866790339
-0.01012668035844652	0.002233405537865788	-0.003949668365123588	-0.001451785516256547
-0.004457908679127489	0.006438227504478704	-0.005405028584441194	0.001623106901713607
0.002023633414941352	0.003285476402895165	-0.000405685631561609	0.002859289354320154
0.001319758199113327	0.003606656407685181	-0.003615051457852419	-0.001717228896344246
0.002407185500559627	-0.002890828065034131	-0.005403888837066319	0.002987015473222575
0.004832057914360787	-0.01222360707030163	-0.002313142950742596	0.003784896385492991
0.007661762292207021	-0.01826983781002151	0.0001306670360912749	0.01045976866167654
0.001214642575077924	-0.02366885114016868	-0.003465312796095112	0.01149459227501938
0.001505225924236555	-0.02482335980708338	-0.005059302979029544	0.002830547945729317
0.006995082638189893	-0.01739350545435295	-0.002303384510665811	0.00346626255016497
0.009947956919928913	-0.01420310371874709	0.0002649110493331063	0.0009944819519907807
0.009601494222623816	-0.0002643887459285599	0.001820639422892494	4.3165892081916e-05
0.009884697839748704	0.01506248861116503	0.001738985755034384	-0.0008210001488414816
0.01651146935738644	0.02132795483925821	-0.003493085250288097	-0.003139902720530817
0.01684067272675363	0.01507636213422489	-0.004409202138367183	0.001273383109096962
0.003833176475765176	0.009403592341198481	-0.001344235911811165	0.00105169645066818
-0.002090605086517163	0.003697952918877739	0.0009497750957591571	0.001155812494175988
0.00154815124648543	0.006970223628897776	0.003080374782450832	-0.00162340564391425
0.006289744870141278	0.001169985388837942	0.002187683225067346	-0.0005749005621554522
-0.0001643332762693189	0.003423371535771743	0.000537566888830193	-0.00213458530528474
-0.004007290599491447	5.259603065761776e-06	0.003703772235329563	0.001773167637357566
-0.001324243495000075	0.002683901327239792	0.002147360941169708	-0.0002957194157171911
-0.004852459008803265	0.002443107834712591	0.001891043649735831	-0.00130105851631434
-0.008637062213619403	-0.0004556950594020818	-0.002966221625425486	-0.005570864201907649
-0.007822147177319253	0.001763420256248158	0.001141105771633002	-0.007641219932795826
-0.001194380427091512	0.001247244079115648	-0.0007712028672568269	-0.009984776022960266
0.0009349400009974487	-0.001474985581814668	-0.001094056725995283	-0.006247386378765807
0.002214420414963517	-0.0003586396833305321	-0.003230752512470562	-0.0022647020496604
0.001082752571795982	0.002096119989141409	-0.00349770434251146	0.002000793230941194
-0.0008330396160671196	-0.0006950495345589081	0.006563980624871799	0.0169800536073739
0.001680501436435071	-0.005779172413801999	0.004743770181057429	0.006666189950642411
0.005462583762573396	-0.01578478846675047	0.00548347320878758	-0.007703566970902183
0.001593104614439249	-0.02060519591860556	0.001987842074457783	-0.007090133086608167
0.002161319350628435	-0.01447509851310204	0.0002080922083066459	-0.002576131612399678
0.004031165198719266	-0.008297449155995631	0.003377115139593097	0.001477603993927542
0.002382998449422832	-0.001831001177776474	0.00432379767721029	0.001607922144122748
-0.001617441536677551	0.008920162042852335	-0.001482511891788158	0.0004109115411733106
0.001856003007433053	0.01495092714301897	-0.002990033615353887	0.001152084134844686
0.001193922538623191	0.02561019354018217	-0.001571521858301871	0.00400730067450368
0.003981532596673991	0.02504374591086528	-0.001482571029481015	0.001407081178885122
-0.002255091299525291	0.01238549072097723	-0.003202467169218777	0.004620729651535377
-0.001627325895646574	0.008052014616518683	-0.001723249363615	-0.000504481754220587
-0.006175464235722849	0.001528058695623355	-0.001148144647425516	-0.002433418434137697
-0.006842632053276762	7.613003233790615e-05	0.00121221352376424	0.002496186459012499
-0.006177241281732027	7.738072115472149e-05	-0.001761631131186975	0.003656304637960365
-0.006638550986235706	-0.002741491590481401	0.001129422925456008	0.001515948504693977
-0.006263298602476475	-0.006041030828260423	0.002640263180751871	0.007229479896495767
-0.003878125553139678	-0.003936066532071503	0.003208352620233682	0.002155463031297776
-0.003985590089265758	0.000693619331817098	0.002630241861555224	-0.01663490517461183
-0.005455270664771098	-0.004088608887731918	0.002139542306851358	-0.01611483301589478
-0.004711496958689686	-0.006575368860314428	0.006405816626826722	-0.008469240717967057
0.0009513637858130781	-0.01003644261411452	0.008550891385632009	-0.004034856293263158
-0.0003686286197076541	-0.01020697431004773	0.003832763876287532	-0.001599495572373959
0.002478603271405316	-0.006649752257833115	0.005986159995254867	0.004224336766229822
-0.003211636220340184	-0.004753056523276854	0.0007329184468232689	0.002543983841037158
0.0005034967106153005	-0.001951803857538697	0.0008074906789151637	-0.003451548009577852
0.003000997245765023	-2.894623261771995e-05	-0.001559541173071417	-0.003046197042012712
0.006070860175458315	0.000563158072931889	-0.003219685876790006	-0.003242497106414172
0.006094792374774356	0.002533301588307989	-0.002384788543766267	-0.002950475526277327
0.004203746190969202	0.00210132889575283	-0.008673026201587667	0.001445347411303431
0.0002732342578754914	-0.0005544749600783271	-0.006369557862482203	-0.001899693584521888
-0.0004534253119119584	0.003909128691915022	-0.001976244470222169	0.002744390139248071
0.0007826312375354843	0.003927336772642024	-0.004224333423431399	0.001387861250857959
0.004968495180031244	0.001254913439461406	-0.001080097692930839	0.001513281338871545
-0.0009289495345383761	-0.001434711352413264	-0.00352460115615265	0.002613923273729113
0.002553519367138599	0.005664404318167154	-0.001104263241454733	-7.277587403767921e-05
0.001913660019846165	0.001561178681563475	-0.005156253684126077	-0.0005143573359473537
-0.0007136048874120687	-0.006686263402223974	0.000716141778471704	-0.001723439332372814
-0.0003077151295460232	-0.009856648521408461	0.0005652093888391976	0.001951206784424313
-0.004146485865694919	-0.008085740665549132	0.0004488480890092822	0.0007638809441129642
-0.005720508021715785	0.0008560311383743693	0.003134805914016353	0.002701190406598619
-0.0002361793376054062	0.01128746817039523	-0.0004118155595448271	0.002804103050612385
-0.001761995466469486	0.0189619000974574	-0.0007403575566603389	0.001722991131527468
-8.076051566457433e-05	0.002572952161830203	-0.0005825736620128446	0.003984929080242433
0.00368425274242838	-0.003133457326358621	0.001850634957664113	0.004268675328417896
0.005068562206017817	-0.003475187996113141	-0.002271194580410474	0.001351144928554021
0.009760716735083136	-0.00078028062928913	0.0009091706264585859	0.003215046454677951
0.006804301109679174	-0.0008452750678647428	-0.001753467310593623	0.008558668695713516
0.006646826056921505	-0.001444155148887994	-0.003497908373332699	0.009534683304908012
-0.001394231895538291	-0.005284512413531148	-0.0003010556911468311	0.003540990974082443
-0.01113425873008629	-0.007081986075966906	-0.002243534215402939	-0.00225214144082421
-0.008960897749297736	-0.01184240380308634	-0.0007362354777532269	-0.004115163242939702
-0.003825505809931054	-0.01574108173084273	-0.001533118804524613	-0.0004699945379201004
-0.0001678221311975171	-0.01836272142599037	0.001811795164356626	0.001028414333899844
-0.004196408969445045	-0.007938761583618484	0.0009637837747301497	0.002911900753822123
-0.005461032643301884	-0.007477216803045456	0.0009995106118444483	0.005360227747878317
0.0008618167244157448	-0.006824007553755044	-0.001758105673420228	0.00747243615407678
0.002681667547017311	0.00152619502538946	-0.0003280559725822423	0.002473987605666225
0.004257879824919614	0.01100150382554436	-0.0006264122174355071	-0.003582211050015347
0.0008920397403384269	0.01241639772311048	0.000236667401251537	-0.005451754456965312
-0.001574066180463159	0.02253598917109928	-0.003409289378362826	-0.002784961408451177
0.002844644346073095	0.02089947340438785	-0.0004501950004782595	-0.002085787915820006
-0.0002431265436666523	0.009738635676842076	-0.002536892903381857	-0.000151385571706989
0.00478982630785092	0.006106853859458108	-0.0002152931554408081	-0.00362003339952517
0.00124450758872728	0.003919832262896305	0.0004199071066299799	-0.004307825468917482
0.004171230546758912	-0.001996534445421572	0.005264690814469106	0.002749870200567582
0.003349915469932428	-0.004527175081745469	0.006379637649062701	-0.0009805150397876367
0.003920851484167083	-0.007564907338113679	0.004031491477747264	-0.0008763778079348059
0.001183836971122221	-0.00505733253759898	0.001857011510266486	-0.0008469952591150844
0.004971417434372527	-0.003841486459771485	0.008890411748239084	0.01853986027368839
0.001845387128949223	1.532984420194025e-05	0.001849376691552786	0.005836937868057361
-0.0001403028480202521	-0.001020090512977624	-0.003631631827601488	-0.002088091027875882
-0.001131729939095478	-0.003010490637375194	-0.003739537907894626	-0.0001225466857418293
-0.0009789416162605074	0.003402928945631511	-0.001145109020678124	-0.001703667973257471
0.0001062429106046498	0.001902012891299475	0.001662086232036235	-0.002890116305698202
-0.001493852131137249	0.001519855814444421	0.003658553483745876	-0.003610311355301288
-0.009217084196761108	0.0001073517017203886	0.001716874915356132	0.0001228558191385928
-0.006356536625130362	-0.001745856549681409	-0.001202302473069464	0.002963812842166939
-0.009911795838893893	0.0005965930837035517	0.0009151835150433973	0.002801243516155363
-0.006707982958864974	0.002360243925659587	-0.0006395609686664338	-0.0005072222538811299
-0.003263177706389443	0.00389119873023192	-4.034500760290252e-05	-0.002577276798471103
0.004067899879390217	-0.0007732200812940869	0.0007226077417291058	-0.0007381611185391628
0.008628659925555162	0.0003443980901115124	-0.0002713763749824343	-0.002427260388854219
0.005952200896942573	-0.0001347827717481176	-0.005241611106046883	-0.001164953916342655
0.01189742619115301	-0.0008974588643935203	-0.005253270709715103	-0.005550920377798405
0.01446711002219495	-7.851877265496878e-05	-0.001816733373305566	-0.004020254813372928
0.01262353411689708	0.002096100116321999	-0.001636166684516687	0.002330416070173505
0.009704489820722844	0.005443350355799747	0.001793549567907151	0.0008906032886370133
-0.001394410556097749	0.0069097063621209	0.002418686612757803	0.003699180079950942
-0.003340908813776543	0.004902797905614445	0.003916837315325804	0.005475354521591385
-0.008996316112281529	0.002128003502407448	0.00402609739871793	-0.01070325471436587
-0.01586721191660748	0.003193498051875063	0.002881775551674093	-0.01771328049452234
-0.02114985734717724	-0.001200205742188431	-0.001814601494885221	-0.00768273511646144
-0.0154293914108979	-0.003998319696644403	-0.0005509984272394559	-0.00447398734375495
-0.01543227531231215	-0.005511019042345119	-0.002429749492561036	-0.004972116835767065
-0.02480648526014355	-0.01114427276402261	-0.003902476161850352	-0.006003343676065912
-0.01795950664170083	-0.005135968429428602	-0.0006757876663619054	0.0003054551817731262
-0.0102439990675558	-0.0006978725073138942	0.002836372225974875	-0.00243174291742532
-0.008051505489302734	0.006763970801171131	0.0009687332425155465	-0.003201434369112701
-0.004450850759718703	0.004392610534811272	-0.00292396571054382	-0.0005739877793952957
-0.001601877958937055	-0.005118517197876872	-0.001626993633250661	-0.0008308340007361828
0.005832334590619992	-0.008079059378761477	-1.326147922966274e-05	0.003065948115635696
0.008717212164756669	-0.006936176633075533	0.002008324234882781	-0.001013584872524986
0.008809908083964908	-0.007833707149426116	0.002028086594920831	0.0005564297395761507
0.01656450655954904	0.01061915074344142	-0.002479134152857192	-0.003175298438258029
0.01390329884936244	0.01415683245328368	-0.0005499185907216846	-0.006013674658299868
0.01817516209825791	0.0186225355520408	-0.001963279563287765	-0.003535492492482155
0.01566124941965793	0.005562714933454087	0.0008222515192245442	-0.003997718337563361
0.01094545563485148	-0.006234569269183319	0.0005398669146453227	0.0008967271475421763
0.007095699151684617	-0.009130408354092418	0.002156915636427238	0.001563575081515207
-0.0001462025293467067	-0.007556006987613087	-0.0008641311609631919	0.002415833199857179
-0.0001898126454662668	-0.006717460474509253	-0.0009714870155968706	-0.001413108488316339
0.001638469587206906	-0.009341888588805584	0.001348732582687913	-0.004071192948665124
0.003178213094400991	-0.005293552894549055	0.002352582924257546	-0.001236656977258828
-0.00162344264592242	-0.006377359869072394	-0.002335627967879936	-0.0004742044074431951
-0.000728497954926379	-0.002774780809449423	-0.001717464102068051	-8.171246657008878e-05
-0.006120440972669803	0.003031734325892356	-0.001129600858397308	4.777920607027999e-06
0.001146473821523202	0.003445401032223996	-0.006594833120818208	0.004482766621028598
0.0040778511724777	0.002155518757817683	-0.002661276077287712	0.02040285919256957
-0.001881768657726133	0.008175307684632718	-0.0008049122068994605	0.01458116972325297
0.001567156805976445	0.006569161316440217	-0.002228918408643981	-0.001424774366008343
0.004332541820412317	0.007779501957170296	-0.00180342357658651	-0.0004180882111576422
0.00192400032257349	0.000142358072041224	-0.003426525890967984	0.001484978321309794
-0.003097961161551084	-0.002212550150419513	-0.004106457852836027	-0.002781499681160602
-0.001903727349391356	-0.0007630836520423211	0.002667733491065089	0.006060598627708079
-0.002046731278766701	0.001800168826960403	-0.001358726505861842	0.002912304630961592
-0.0005997729200221482	5.792466423863032e-05	0.0009427178615329466	0.005494366955436562
0.0002880816704551541	-0.0004107032593916143	-0.002666821181028279	0.003999350077740826
0.003289827316260884	0.000148482865821244	0.0007943017095677422	0.003697085588852193
0.005186641079313444	0.002505914283219392	0.004170013764630982	0.007178249646089288
0.004040527723932731	0.0009077835607794694	0.001354955368213083	0.00170867544655895
0.0005877682581794547	-0.0085029107086389	-0.0003606644578909466	-0.002796975639313184
0.003163800875326615	-0.00844548973119319	0.004976828246096866	0.004725367572149365
0.00221263799067941	-0.007862772924515659	0.002647703707699903	0.007755440084543021
0.006389853960484269	-0.005819971266953475	0.003612283519919831	0.005047380052340359
0.008434581354033245	-0.007814571642038548	0.007203534040151069	0.01364319275978907
0.007995816168068744	-0.004653794474791863	0.007140815575885398	-0.0008183821009945934
-0.0001475524915955013	-0.0001987733489494082	0.004071060992224398	-0.005736840590803518
0.0003928989087078007	0.003015943609795913	0.008573627266699831	-0.007827838539000055
-0.001395036494979458	0.0109884512016233	0.003734873029968925	-0.002771697601442026
-0.008612528645543235	0.02168545232982014	0.0004777959296802505	-0.0005521350207473605
-0.004765532896848395	0.01818536010810631	0.0004735115561997222	0.008137020540935633
-0.00308613059340543	0.0114581654350915	0.001443515545703538	0.001170124784818261
-0.004660909540716447	0.006124141922702393	-0.0005135783546901506	-0.001233811356821056
-0.005522023755751902	-0.001654294203161198	-0.001026204437291978	-0.003449060503583415
-0.003376934176337432	-0.001110473640665069	4.077260309651486e-05	-0.003628281743929587
-0.004029196239886842	-0.005957400367885642	-0.001523525543425056	-0.004583320079943142
-0.001993539398196848	-0.003948157569155819	-0.003346851237539691	-0.004515167506905632
-0.001619070401194421	-0.008231975988399823	-0.002287164191964188	-0.0002642170482598244
-0.0003586314034241292	-0.01005514536780191	-0.003505867632785061	-0.005449842470064128
-0.003057446364015795	-0.009196520803231583	-0.007921074080621638	-0.002210145981540651
0.0006331205139313312	-0.004514769890981907	-0.006097675348487893	-0.0008464867554863234
0.001075729555418796	-0.01089702353608889	-0.002713493429026305	-0.002144270792279383
0.001765969592782102	-0.003823358569815672	-0.002465176936089642	-0.0002318369481799428
0.0007846549898190329	-0.00230757935076781	0.005301137856004211	0.00522293055638198
0.0006563511605314156	0.002641231000483715	0.002477886441826651	0.005022685624700782
-0.002908198947340367	0.00124179756971416	0.001588524415950637	0.004210075642760376
0.004686635663937075	0.005112106880162112	0.002235341007441593	0.002533895717920657
0.002130614317681065	0.006522111738353661	0.002602630841509796	-0.0001666673968507768
0.0002669673987337867	0.005576717364019546	-0.002439949289731074	-0.004043955692742339
0.002622369684058341	0.006408651292279289	0.0006161462131135318	0.001297603157045886
0.0008551860494389881	0.005642889323865196	-0.001153116714567928	-0.001027576614671717
0.002746379070658334	0.001109668107314682	-0.002175150221916001	-0.003433426366221459
0.003920310095494255	0.001338942696699817	0.001982239067795386	-0.003322320369622261
-0.003199539897325769	-0.004121709087013567	0.001684362544739018	-0.002740900392345192
-0.003588617567006065	-0.001445385131754386	-0.004722607546696285	-0.006366936907602529
-0.003428695402125968	-0.00538118957262974	-0.005648684301391405	-0.005164779257795826
-0.003817735632522568	-0.002598043150294586	-0.003846299753695165	-0.001192402063495761
-0.01152552008448574	-0.01106463678812267	-0.004346282001593713	0.001220088830355685
-0.008492840633393716	-0.01129265872823947	-0.00334830964977557	0.0008143577395499392
-0.009957659357874691	-0.01038987207010515	0.0003864738120050245	0.002314031160566189
-0.01203272817370376	-0.005975374992294702	0.001199503883132181	-0.001891921683182043
-0.006108194357648236	-0.004706425849724735	0.002003842731210881	-0.003376177005381587
-0.0009265009397194907	-0.008883576451599432	-0.0001962402794017564	-0.001511150393133837
-0.002505268117884648	-0.001905235211542842	0.001254303687841156	-0.0004338585425128907
-0.006753690724747103	0.008250681952676064	0.005240071174545644	-0.001854420491958203
-0.002402345471614901	0.0240262170660311	0.0008136845657971259	-0.003267516639620129
-0.0009096990151619186	0.0191941530882616	-0.001072194592113747	-0.003381448168014465
0.0002228971228679376	0.00860770291834094	-0.001322114386449434	-0.002498418811383083
0.002423906631349146	0.01104980801170799	-0.0006637739881815095	-0.0002066011412265228
0.0007271612088667072	0.007240179186615061	-0.003837637876711694	0.0001238613665601512
0.005709854317697813	0.01428347821307135	-0.003727894946365383	-0.003557515060052625
0.008301972093118884	0.01714768559848128	0.001144693115106567	-0.0007555847317991551
0.003429036102707709	0.007658662484780116	0.003676861617741221	-0.002362538688500166
-0.001319578208084618	-0.006678645795952359	0.000370257931572737	-0.007041593730835487
-0.001990708931616999	-0.0003393171641730396	0.003175498001348078	-0.005181162102898782
0.002351213364200049	0.003563635811805056	0.004372397491909147	-0.005210009266245396
0.004895544090320602	0.002836801752753298	0.006390974144992441	0.003114262232722898
0.006282486396484237	0.003445867325430217	0.003140046260873536	-0.002415598381231469
0.005721091806684978	0.006256701882241514	0.007347820057217904	0.008371572823630064
-0.006190786494947152	-0.001464255141708676	0.002343636481767462	0.01141903803772247
-0.008935616812547131	-0.003250259339987367	-0.002174377119832442	0.002706437078181826
-0.001760993216390706	-0.00365247986382686	-0.001090133866742259	9.884743221303763e-05
0.00755411023739486	-0.003716047289848032	-0.003780868501350733	0.002421280778085204
0.0148586696544448	-0.0006457569880804221	-0.004673335565767375	0.001475503000002674
0.01581458940747392	-0.000226540514842783	-0.008105701356951408	0.003676829300609972
0.01105896118216893	-0.00571765535982803	-0.005826604653050211	0.006299124353233767
0.004386869956284178	-0.01719536378827242	-0.002089685995792039	0.009425877054864869
-4.559191912510542e-05	-0.01706884921493579	-0.001994980746352002	0.01011253490476431
-1.739922741848262e-05	-0.01716393290602227	-0.0003286886117846677	-0.01011550938428347
-0.001552202984498047	-0.01649657841362061	4.238579285767363e-05	-0.01697985593712859
-0.006637055171757394	-0.0110638980498455	-0.0003754905010718605	-0.008917697211000258
-0.01655060707390614	-0.008486033697336637	0.0005005671634469826	-0.002638813458131335
-0.0228132724461517	-3.094210037093066e-05	0.001588605464895519	-0.003619172197950223
-0.01120850644444891	0.001772001043730345	0.001944174213493783	0.001029851805763062
0.0001437753397985895	0.0001112149343129074	0.004873048211100864	0.00204859487261236
-0.004076167514813612	0.004450856173136303	-0.002037764023779625	0.000181436487350957
0.004437814295547743	0.002601422999975889	-0.002249758281698166	0.0003318314616123161
0.003671246842306242	0.008871609989147374	0.000136023755257969	0.0003559980694415036
0.006162297394491943	0.009478903316329265	0.001003690620702221	0.0005093415748901604
0.005283487059855188	0.002926574957204542	-0.002396124819754072	-0.0004381648834266062
0.00666003639697586	0.001481541848275338	-0.006589030015783002	0.002778016077210585
0.00367480450941496	-0.004441553435565359	-0.000561322235492191	0.005021920225418282
0.002991264320231068	-0.01248026679602051	-0.0008861749050484766	0.001442488722310818
-0.001548536476442598	-0.01358706654413677	9.492281240075642e-05	0.002482594081710351
0.005926701173213355	-0.01263818434528097	0.0008826415762334972	0.003244318689289596
0.005247474925076713	-0.006276739371812869	0.0008188454267132753	-0.0008253241770419651
0.00416003445606667	-0.008413129374808405	0.0007945982373971351	0.0005820830478111161
0.00675048121918199	-0.001035746418832445	0.0006604474996906938	-3.245383827618494e-05
0.0120020408209626	0.005180808597003516	0.001727259642714718	0.003267017788749371
0.0001952201969563165	0.009188038907184873	0.006499837598024003	0.004868663829581643
-0.001147124772797631	0.01270735414994572	0.01015772869154876	0.002685838512740597
-0.001331299773092678	0.003497005552305606	0.00875595245181981	0.003151488240048475
-0.001920046093286258	0.0006765054533800327	0.005762986175486103	0.0007288746716512222
-3.402936288598679e-06	-0.000177939124445815	-0.001860254010646247	-0.0004335648675187015
-0.001257081965398975	0.00524337325619598	-0.004449200758622684	0.0008492586582266556
-0.00404199263519613	0.00363173824706096	-0.0001654067400834116	-1.113510194042393e-05
-0.007232910700469455	0.001357095822496124	0.001295026775668037	0.004065033951878793
-0.001611938016311337	-0.001692583110135129	0.001664312971829576	0.00715375076261456
-0.001161137821985836	-0.002962468622039787	-0.0003619159200017539	0.0008572369132160514
-0.0004373230977493609	-0.003121034580632118	0.0001074931196870451	0.005530434576351207
0.00545912842945701	0.0008546860758332008	-0.004944627887943655	0.003243048215225665
0.005706103600186889	0.007703747678237741	-0.0007572618404370822	-0.003319896454317669
-0.001020282496540732	0.005535423549642221	-0.00603606571814921	-0.004558039456883324
0.001741894046156971	0.0005738757903974237	-0.00221802949120025	0.0003929754907260965
0.004108104076991853	0.003354246237392994	-0.003410451087126154	-0.003445819889891651
0.002343869144257086	0.009329231417783841	-0.0009879319080710657	-0.0005555327280484416
0.001498893774811062	0.008258852013640341	0.002978944892298863	-0.00166935057218483
0.001354840236185504	0.02151740900853123	0.004165211387206081	-0.00107534904914355
0.001751351209953144	0.01079789152073657	0.003940017263437587	-0.001666728369571349
0.002758835503480376	0.003750428556001944	0.001231940780689627	-0.00321908062759974
-0.0008736952807083526	0.0003873802533657088	0.004647235486378515	-0.003322324672608045
-0.001616952518276392	-0.002110410618481701	0.002109873916355739	-0.003931398541904368
-0.0006404895154976057	-0.004618062184162189	-0.002693074526990668	-0.006926630038518137
-0.002660186040547431	-0.007997260727950936	-0.0007927722555920386	-0.003741655961716003
-0.007683763689732667	-0.003300585438710981	-0.0003373452795482132	-0.0006826311243838165
-0.001992711011225386	-0.002076195926580923	-0.003696788255378722	-0.002525404701539637
-0.001527285517889758	0.005436358470191327	-0.003183474692286356	0.0001281615830115467
0.000581994446059631	0.0119452864444198	-0.004864872300053859	-0.001057030573568231
-0.00121912944812038	0.01240357576252636	-0.001864634933059142	0.005788519383913641
0.005700965945084034	0.00135785887644427	-0.001069246042364403	0.007525851686860968
0.00978071815837433	0.002879207653178692	-0.000917294598700548	0.004173707219630004
0.003057027343605748	0.001580792252369158	-0.002291851902518527	-0.000977989659911767
-0.001497866244987982	-0.003244258033217901	0.0008875535926390513	0.0005591655418590777
-0.005172636654593013	-0.01259069366913751	0.000385768651044734	-0.001775013638932159
-0.006509789196549034	-0.01145053274015086	0.003724119161045087	0.0005194315869594229
0.0008720789388900512	-0.01338488846858183	0.001506154631758625	-0.0001793802236981766
-0.003323952014897059	-0.009045801080443883	0.001089343845085817	-0.0002404286506280333
-0.005576842023507713	-0.01039243410186156	0.0008406546768824398	-0.003722188922372239
-0.009682925811147413	-0.009572916627956595	0.0007797442664463581	-0.004856384581182007
-0.007346033422153586	-0.003820610234170294	0.002106996610033989	-0.006943802150832299
-0.005025261108420566	0.00279613371041533	0.001798798585674751	-0.004962557581456499
-0.006667033531811908	0.009481526523538959	-0.003240306140075457	0.001072651591203569
-0.005234268708336486	0.003279305546396927	-0.002564705146582039	0.00364061248466402
-0.002341893497976165	-0.004089793330774817	0.0005492561092836274	0.01998837756246146
-0.0004077456827785983	-0.005488006404167869	-0.002250114941993647	0.008409359894322675
-0.0007747934578987613	-0.001695479624215178	-0.003913542723499089	-0.005803596599336235
0.0008941436947329458	-0.000872042421916635	-0.003564562388474368	-0.004848283142615597
0.001147664400465397	0.002455716536860866	-0.003119207875991284	-0.0007274985882452782
0.001104369109020348	0.00291320191374391	0.001656422503943515	0.00282490300283402
-0.002953177535827814	0.003174972446651895	-0.0009665225335104157	0.005923887513907194
0.001424955994730246	-0.001719842018375884	-0.002004492950646826	0.001750038166792693
0.000802808552046397	0.001900433227471128	0.0009037567304195047	0.01163598877215086
0.0003973132996866665	0.002674726295891627	-0.002585274803920582	0.00265887682889955
0.006552748380742385	-0.002102464154564493	-0.000609124197937318	-0.01396756402084545
0.006194803233925849	-0.002237880436239097	-0.003901114755100908	-0.008785670837530088
0.001925523364963271	-0.005790017523236429	-0.005094765477979295	-0.005940108393257142
-0.006977056635513429	-0.007686271899579822	0.001545075014457564	0.001302401663351954
-0.003464372630356402	-0.01030719017940179	0.001817068442044822	0.001069808172261048
0.0008943493559721829	-0.009543478791735716	0.002064816102844679	0.000124195797075841
0.003302243496085958	-0.00924090326289791	0.004365470943953003	0.002643953019717253
0.002503896702077983	-0.00822826233226252	0.004639012432821416	0.001833109076195906
-2.057483534623364e-05	-0.005564167757310247	0.002894305897518019	-0.002379438802483085
0.0009240066910503661	-0.01190872906894317	-0.002061185261753556	-0.005925380682188555
-0.002344553598850877	-0.007265011178470965	-0.0008192407557171896	-0.006638459274556282
-0.001450003014492681	0.0008218247407802633	-0.005599859667407382	-0.006547618007375162
-0.003308101397907032	0.01249859942788721	-0.005017363991438329	-0.001534169398309572
-0.007645277646780183	0.01707071050183163	0.002686622473606219	0.0008494075875577667
-0.003680001942683483	0.01897525547185978	0.003370559121337027	-0.004292371005140784
-0.002290104474446349	0.0199731839773192	0.002743766030053769	-0.001607166835909971
-0.003164201295304863	0.01544884584994442	0.002662618214752566	-0.0007955852981092603
0.0007519089106390147	0.03282358634809588	0.002095168154774498	-0.0006817009248220588
0.00227784065523298	0.02139513136646146	0.00226255772046422	3.991712315768229e-06
0.002657344437658062	0.01031463887076617	-0.0005125179809526417	-0.001995836442871154
0.003945218547301334	0.002409690611163496	-0.0001658664992914363	-0.00351551198764342
0.003433919595600579	-0.00629669149914813	0.0002375527275069771	-0.001905023521611613
0.008005422257824945	-0.004171589314034271	0.002326102667211821	0.003020289047949257
0.005327742253249449	-0.005947498790308254	0.002611804001245356	0.001422953587405033
0.006797481101252934	-0.003289962884511661	-0.0008109855476784212	0.007406777065928547
-0.00294920525047211	-0.005084242174253836	0.002323496601053163	0.002708624107864101
-0.002477303767844442	-0.005689407493205795	-0.001049293166274774	-0.002682152623537402
-0.004147269649673151	-0.005146986622904685	-0.002461379241786708	0.000491109122113914
-0.001154888985824924	-0.008822441616227772	-0.001367536418438416	0.003693250736306841
0.001216821467624705	-0.009243524411632554	0.0005703168147821467	0.002800475580356037
0.001425231338660246	-0.00547835214791872	0.00344719599944395	0.00169400009862297
0.00333481667984678	0.004077218912309511	0.0003906414597069395	0.003220074390750441
0.006970930119471954	0.01089895742226242	0.001995939140474543	-0.001082459134436428
0.00680978159283314	0.006329045582381598	0.002702488542513938	0.0005033583565677487
0.005174030162250001	-0.004088028394918288	0.003371737962663939	0.0002402902816769864
0.00413777732681691	-0.001664792680041695	-0.0006086134531035416	0.001303084107245409
0.005135090705278143	-0.0005578307508975234	-0.006010243130948519	0.0001364855907204373
0.001855645285260712	-0.005646211400288674	0.00264970464376142	-0.0007579252663407072
0.005749550046401239	-0.004823433061563879	0.001075319576891278	0.001819773546645132
0.002930267864964991	-0.003789447474344521	0.001853033107051762	0.002555951793844134
-0.0004057162382659725	-0.004050073959410339	0.0001180630487117863	0.001203205010383673
0.0005045929860355941	-0.004449640642231998	-0.0007826592030784439	0.0009975792268753379
-0.001148185050262777	-0.008093654645152968	-0.0008985403390521172	-0.0004119054509109838
-0.002420306580061909	-0.004923156009145253	0.0001288268740536012	0.001762884258864037
-0.001833051711360971	-0.00344546749796787	0.005229897662635862	0.0008416231400875858
-0.001001911915269451	-0.005312162485442808	0.003188568582925174	0.003508321271446177
-0.006064734597867977	-0.007565900359517996	0.004345217403156785	0.004999162418390167
-0.00709260650096622	-0.005473831790867074	0.002159613906867845	0.001900152728529475
-0.001333337587259479	-0.00159315724011318	0.005347140146709436	0.0007374968688694865
0.002896986784386871	-0.005649129835444532	0.0003109247825092064	0.0004470876396762164
0.001728456336619819	-0.0149966801404784	0.00151023609888209	-0.001579093864808945
-0.000150337749166227	-0.01466827584091583	0.001382881619021831	0.001294298672001212
0.001539338756372119	-0.002481394484919464	-0.0007060429506484073	0.0008311080985156193
0.003380767208204216	0.00332274704371956	0.0006842917900589705	0.0002055079491334692
0.001194275045266997	0.003850102171568788	-0.003899386675004732	-0.001392789782525103
-0.001734155498664626	0.006004894279031172	-0.004041472685881773	-0.001867393641938853
-0.004681391473810846	0.01034543022663846	-0.007612155077401636	-0.003676578848603925
-0.0087303344098822	0.01761755479330841	-0.004180286091703509	-0.002473991689583938
-0.006121074063395889	0.02201044827273178	-0.00329857864320634	-0.004554691494036023
-0.004005356392078674	0.01951776930927597	-0.004225216241803349	-0.006557761610472321
-0.00348652480994319	0.007970228745773246	-0.0003616905243707983	-0.006463864797346111
-0.002688643499546431	0.003313246757500961	-0.0003936000183505082	-0.006658606897942137
-0.002382764777527655	0.005676135010764392	-0.001482171181009458	-0.004122398889181975
-0.00227412186344209	-0.000313427093826961	-0.006876305591976169	-0.001264668390246041
-0.000214209735506526	-0.007780760787098819	-0.001821888152747141	0.01823726241279375
0.0001070121645619684	-0.01685693290090674	-0.002420240403792556	0.01333836605822149
-0.000364706358469783	-0.01112708261887961	-0.005289417413838763	-0.003755750660601648
-0.006119378163758458	-0.008249470194881162	-0.005930456287014221	0.001563607812606333
-0.003124440945928343	-0.003075027855989209	0.001490629925409991	0.006146128256333351
0.0003106947688111381	-0.0007948093289267017	0.002084306121518572	0.001287216031773544
-0.003670230476413486	-0.003860254890573503	0.001273693395919494	-0.00291127435499523
-0.002506626654821577	-0.006089736024208776	0.00367950171358898	-7.247641962362281e-05
0.001942265015798925	-0.00381589842132629	0.002799586669552441	-0.0008218532624355279
0.005012819969951124	-0.002487082100800717	0.001221752488107376	-0.002840685093328957
0.002339294367822125	-0.007147704031154696	-0.0009656016728346642	-0.004783472955884618
0.002854287171000169	-0.01039945296306364	-0.006599636936190829	-0.005663097309438857
0.01042903473439669	-0.006903471122686461	0.000214353672224881	-0.006216971601173744
0.006470700725709946	-0.004013735909323168	0.001479759622027572	-0.001924165014048227
0.005569690161402695	0.002203991106351835	-0.001064550664532828	-0.002694546050870865
0.0008270912695074541	0.001773358956839362	0.001418530719099393	-0.0007144225098642108
0.0005871492196737924	0.004682472252158992	0.0002422663906473602	-0.003032266916698017
-0.003388775897204757	0.01109726799381072	0.001566620753321862	0.001533520567607871
-5.980435216937181e-05	0.02871253251024079	-0.0003735823455955508	0.003554780618478837
0.001866318470174274	0.02391749152595076	-0.002888111634532738	0.009378782573234573
0.006126410536083647	0.01063426324206764	-0.004621497730848266	0.009127516518581711
0.003960539398052412	0.004277795448013816	-0.003202235077732187	-0.0007682146966454081
-5.112880225025355e-05	0.005043689642969329	-0.003419777901085684	-0.00218391395738616
-0.004606849755537502	0.002771183271584792	0.002266533634883969	-0.003179642725643734
-0.001566012779699258	0.001959695509238434	0.00228957408468623	-0.004517354502964562
0.003735473340736931	0.004683004695730418	0.001586238062761555	-0.003081560536092251
-0.0005105387016790633	0.004175768374931737	0.005186128686455118	-0.002437356719692175
-0.001894837081106588	-0.0003643467139755227	0.004393648284837805	-0.002225238860038998
-0.0005124698264498309	-0.001468859819129881	0.002900266082239504	-0.00232899290440532
0.002245172141257002	-0.004754840267902364	0.001889954397501819	-0.001564058695119636
-0.003759804446969608	-0.0006674007036957352	0.002318340258028342	-0.002656957410208947
0.0001693783552096917	0.0006385631046919001	0.0002083699771323639	-0.001484566716001541
-6.733881635374838e-05	-0.001177882683305699	0.002500550925367346	-0.002661418159034437
0.003372889339636586	-0.001902942002556419	0.003789292117680418	-0.001620188401334233
-0.0005921515754425971	-0.0009556683891011865	0.005791072034826186	-0.005355226179177314
0.001007754539681257	-0.0001323182104973333	-0.004932147126302608	-0.006709052604991592
-0.002703422915477285	0.0007915370731146306	-0.002502910821138273	-0.005760897863433753
-0.000940305771052718	-0.001139124594937605	-0.001667160912834022	0.001481613608443848
-0.001883033934708076	-0.00449841541324877	-0.001469739429391447	0.003464862311223451
-0.001729269404270239	-0.004867660706027796	0.0008870434136595808	0.01445254824413606
-0.00539289164173549	-0.001363679518781579	-0.000729218137908684	0.009906752413576957
-0.009871882198141587	-0.001438723031437744	0.001057863505401002	0.003576692597810316
-0.004047257571180349	0.004559322396893523	0.0001557877981565737	0.006618734270622636
0.001911619469696155	-0.0005269816548466086	-0.0004885236297687268	0.0008529393882768317
0.004124188717978014	-0.0008714921792864544	-0.004606134435317755	0.004493017569406017
0.007062618659147866	0.002067146845964913	-0.003868701681441806	0.00411004298344851
0.003541141073754403	-0.004718340509943116	0.0007393076983281334	0.003255454518533171
0.004077361227443133	-0.002180286219611923	0.0017009933456767	-0.0003299241721713315
0.006901594204764547	-0.001372132065896982	0.003781855814059874	0.00400382015067698
0.003740061031077191	-0.0001612673588611976	0.006136302998103035	0.003087700294855099
-0.003448456415085691	0.00477002431357674	0.008240398467278495	0.0007497188548102221
-0.009291820747724094	0.01220821113270201	0.005673627557254948	0.000373684793421817
-0.009321224591673912	0.01108367864005904	0.0004886732143330938	0.0007026610529849405
-0.003770257900233258	0.0003697435043878841	-0.0001005640042872685	2.809176299975379e-05
-0.001403714373980906	0.001053702931624423	-0.003128748346234729	0.003852209980752149
-0.003412562831321561	-0.007751608930236082	0.003638474465183594	0.005282041734109489
-0.01068385476715912	-0.01025284550489296	0.002078804111403223	-0.003104438856511896
-0.01036240657628282	-0.01245868254436186	-0.001559046960961388	-0.001731685911221864
-0.003036179882295486	-0.007619415200408486	0.0004775833081531129	3.783351612554173e-05
-0.002630366406067662	-0.007262589673098512	-0.001372427534227823	-0.0006483160695022703
0.002017760830543954	-0.005295740463173789	-0.0007941457381464354	-0.00726373860175248
0.006100824165352003	0.000889192907628997	-0.002884107847771706	-0.003471226012856649
0.006450557503528597	0.004640612313985242	0.001226771006760171	0.01820296480330961
0.005448094082503361	-0.0006188516229790252	0.001035174533048118	0.009755229066214446
0.004494430473948276	0.002944364578796371	-0.004147049204535205	-0.0005693633198192593
0.005250567527119585	0.01472411151853262	-0.004306152736609602	-0.00453563954129773
0.005217331090953673	0.007763907324321342	0.0006827450244369251	-0.003606902046020947
0.008035788423682338	0.001402294690088885	-0.003928956849428606	0.005669032031243002
0.002960504398404004	-0.0008741442001085772	0.0002963042031077511	0.001192852125313797
-0.008196497601056932	-0.001277928388074993	0.000483486500267046	-0.002622703431966363
-0.008894062097450074	-0.002356531320620763	-0.001429803154765482	0.00292947718450118
-0.0003326337101881099	-0.003409869572107107	0.0002616891143308699	-0.01145859912270878
0.006829268432874025	-0.006550734331282581	0.002035500135654834	-0.01695750946086387
0.007694896758722292	-0.003371656944656738	-0.001927518729000392	-0.01130320854193008
0.006856274806781724	-0.002934942576830862	-0.003589286427760254	-0.006576755147937981
0.004374880738726794	-0.009254940041206777	-0.002655225721514954	-0.005762744737542095
0.001363180047499319	-0.008998746121520736	-0.003004111355079687	-0.004742485302869701
0.001704229009571397	-0.006220289722589777	-0.002495874087628717	-0.00454060238750979
0.001937562064029833	-0.001463042006985894	-0.001997023126077854	-0.002527871742893243
0.001332871524594009	-0.009359048312340718	-3.312677237407219e-05	-0.001749192985666311
-0.007562713771766112	-0.0104419349142025	0.000903658504690502	-0.001491797989081196
-0.007075036740282787	-0.01062865451776208	-0.001215436762160952	-0.0005142958485556167
-0.001248102916664726	-0.006305441499511231	0.0009449375252315116	0.001832864268668129
0.002290283027308946	-0.005129947589037079	0.00151671564701367	-1.238694929979162e-05
0.00237620837368647	-0.01122090751088381	7.759221852741222e-05	0.001209387832888536
-0.001112080422435506	-0.004668599079358071	-0.0005205022399707596	0.005356642911145891
-0.000260197060787755	0.007819549020234198	4.869362161437569e-05	0.004025444433610374
0.005481999870426591	0.02539059317888211	-0.0005122484983434503	0.001220673979943218
0.008359315839619335	0.02150801337050515	0.00112029723559773	-0.004375461479584085
0.005247809652482682	0.0110556008545477	0.002551765680980328	0.0005207435791624828
0.007740552927780803	0.001864481415042404	-0.0003379332745200669	-0.002196482215483539
0.005064536743829278	0.0001799038293378841	0.003460782277849419	0.004317842051888087
-0.005144140201630816	-0.0003560174788894331	0.0005883571862201174	0.002383907559638918
-0.003098262159384006	0.001948178339984981	0.002707902034691408	0.005911196764111752
0.00108674321455565	0.001446915885196919	0.0006709330302473444	0.008255189975566766
0.0008604480226752736	-1.346993858078681e-05	-0.00171178918532339	-0.001018054107657719
-0.003021158750329496	-0.002261017970282034	-0.0004995768190122062	-0.0009450682164250963
-0.005386193106419143	-0.001528649302742989	-0.001154608903367214	0.003102113397405842
-0.002335611762420521	-0.001183937856205587	6.002303547622621e-05	0.003212604217019369
-0.0003057932575755152	0.0004962562723189919	-0.0001599038700367618	0.0007124201630241085
0.001411982112175024	0.007731922635379109	0.001842939267941521	0.002554509066861627
0.001880644534544948	0.006690322283015896	0.002501854172763779	0.002897187329322677
0.001379891999324305	-0.0006112747606637819	0.003886583452283752	-0.0007799693297988149
-0.004090480793416943	0.0009725472105072844	-0.0009225051154499826	0.004944222869567835
-0.007687556232834836	-0.002841118717717441	-0.002431040975978399	0.0002268174068825963
-0.009984478240311654	-0.008220546523984528	0.001535026568211513	0.0003855619442512796
-0.00772297122014097	-0.008651171809022159	-0.002218112418036538	-0.001026837752698387
-0.008159752119025823	-0.008951374737301494	-0.003068341697999455	0.001623972855465165
-0.001168974614123098	-0.01245966886528077	-0.0006195541577217622	-0.001220659459704518
-0.0008729706990347781	-0.009591563278867812	-0.0006604600750434904	-0.004571582773375982
-0.005130887089681001	-0.009299889447896236	-0.002501885216946611	-0.00209138951763188
-0.007569074754257219	-0.005068123485609085	0.00223520987645858	1.176574466993e-05
-0.002848547520839554	0.002618346396492145	0.004302120995925397	-0.001932770692881033
0.004516785257622658	0.008796828546478071	-0.004041614906690944	-0.0009745109481116679
0.006053813555504088	0.009678338350100577	-0.007137260361434063	-0.004914061026362253
0.004366807489759502	0.009889867055360225	-0.005227785867921891	-0.0003728098499812041
0.004571931915734329	0.00649776918086964	-0.003102326788659213	-0.0003240331451674391
0.005158172337166294	0.01029411640312462	0.001297596571429186	0.004659387003992428
0.002092268505141663	0.01054523074416769	0.001965742993607575	0.007387708915696792
0.002516048260869477	0.01278067000548713	-0.0005600812747014261	0.003127198777227307
-0.01031616589176152	0.009533338419281124	-0.001673324473982059	-0.004559242243060514
-0.02300928399735183	0.008712813765889196	-0.003822327076660591	-0.006939582797691655
-0.02370793650797577	0.007833424413279819	-0.0007234913577897335	-0.006061173251839292
-0.001499085206001728	0.003339770005834646	0.003551743430235065	-0.00166576864299041
0.002592558528912556	0.00172583859067399	0.0007130475528086895	-0.002444652946849703
0.001769189802818399	0.0004859722626288123	0.0005312014981783956	-0.001379587813942533
0.002659156067034765	-0.004315907330320257	0.002216098271093461	-0.007635818908820926
-0.0009516288686347771	-0.01004467901118566	0.006262143190092152	0.004178428197027829
0.002506701048020727	-0.006667330833163666	0.002884018613886557	0.006301091025798617
-0.002849381839511657	-0.006989674420898394	0.0007616784871840162	-0.002882175985571407
-0.001937093460472234	-0.006500967152562334	-0.0003787558132559535	-0.005937344550450238
-0.000688299839123981	-0.003249287370637421	-0.002339796108682864	0.0003828633023236657
0.001765640569480669	0.0002159997969351132	0.0005607282821141472	0.008880092691610929
0.007066420094616308	0.004561200559824698	0.0008903052031387205	0.006777955145060742
0.004208003293840677	0.004861653004130518	0.0005084693352859315	0.009283199744830679
0.001240803527754993	-0.001354040225134123	0.002666946683912585	0.003155124629169685
0.001090816704279438	-0.001418854906189582	0.0001668303494308978	-0.003104545234018997
0.005316523060703065	0.002051555624823092	0.004595326608440725	0.006029448885793759
0.00893728396045218	0.001376018116288198	0.002031685373710692	-0.004193330162685524
0.009121120817316747	-0.0005834882616257406	-0.002588583494197326	-0.0172646514068924
0.007126827006609943	-0.003975969782677348	0.002688716530100429	-0.01199459603306418
0.005149801753310969	0.0004936413806869757	0.00616147578649111	0.0007746003347203731
0.003676238546958712	0.002042042420065934	0.006172788272862705	0.005554026601953355
0.006629895579632137	0.0003955244284524511	-0.001162753287276169	0.001195003053179937
0.008656551400609863	-0.008315015430698213	0.004581756278299571	0.004029225134668522
0.005143968733951339	-0.005085932669043238	-0.001196015171030891	-0.002950468036187099
0.007911861538069564	-0.00174785317269456	0.002546166967935381	-0.001737149806816375
0.006069097049677724	-0.00558817857595084	0.0008881222162465194	-0.001175050320438337
0.006750268002045741	-0.003807330153699162	0.0003383483030589479	-0.003496428483704532
0.009375311658489283	0.001755244988257015	-0.003321111162953013	-0.002033697422420918
0.01053848512291909	0.008081261960861681	-0.001290965559005649	-0.002785002925599534
0.005380786753899019	0.0136259628967156	-0.001259962938211089	-0.00254669720512974
0.003881048060815929	0.003542445066635168	-0.001049101145485884	0.0001162568069430592
-0.001135777463472903	-0.002038247303987229	-0.000370450880935992	-0.0009837524375992117
0.0003726903449771443	0.002488616112381315	0.0001744966811273336	-3.51567704372335e-05
-0.002601094072356263	0.00283751967431765	-0.004220335800507444	0.005658052422273619
-0.003508836878939863	-0.005416035559916861	-0.0001957506025869057	0.003526749810434559
-0.005342647346350523	-0.008754224548747412	-0.004254024302740546	0.002972611327568004
-0.00578056039607534	-0.004175427625116634	-0.000805609235832128	0.002308024156580781
-0.007925226444294104	0.009558259998735129	-0.002837602203320033	-0.0002454201220460606
-0.004262513502070316	0.02140548750356953	-0.004819499287399112	0.001907446506913323
-0.003743189752529547	0.009617302092148408	-0.0008562424680375223	0.001616363041403392
-0.00241238541684793	0.003507790660952426	0.001170083708093954	0.003399269753070706
0.001814156425675938	0.0002789308507314649	0.000922149168382328	-0.002109928766181299
-0.004944398545170825	-0.002739766267778809	-0.002079506592582778	-0.001583770624720973
0.001427944750630214	0.0008277355733789218	-0.002216588166468685	0.004543157001014899
-0.004291101421909066	-0.0007599743220596401	-0.003448605631556466	0.001243131790522148
-0.009400247734641029	-0.001169073609796618	-0.002226720449206551	0.001150277761051293
-0.004766601901446774	-0.00187366608173013	-0.002272087834425339	-0.0003049546805930867
0.002530929856280517	0.0008612466966100729	-0.005447967451033003	0.0005944389487527591
0.000409682466767457	0.0006007076925905934	-0.005482398180461707	0.002283436614196431
-0.009091782079362037	-0.004299892239413459	-0.004987117895447119	0.001662495011947204
-0.003054156818300029	-0.004494503667566293	-6.458218538563397e-05	0.001637729118308302
-0.002298155964277401	-0.003982898191498032	0.005845891825717133	0.0002984716375038942
-0.0006995622068134289	-0.004546663844507277	-0.00102069148909057	-0.00236039026586493
-0.004277418676903486	-0.008448926612684425	-0.003433531965752022	-0.001015023604217439
0.002937149638592745	-0.008395641110661467	-0.001837252688601558	-0.0006231213318724105
0.001261195279607957	-0.008793222613969781	0.001016092175519803	-0.001789071411335863
0.001425360038754031	-0.01040569335704752	0.0008920004577508522	0.001173154854296875
-0.00159580153413123	-0.01295065118052412	0.001820542282874067	-0.0001173652520565054
-0.007058661203835144	-0.01093684255535328	0.002937226641638759	-0.0002161410529301101
-0.008636152472989421	-0.007430016616324045	0.004675906613535138	0.001839725751439428
-0.008409281625829847	-0.007724898848210951	0.004481534975358835	0.0008604546000810031
-0.01094018965688514	-0.008314454723244224	0.004869695798051098	-0.002010132849994335
-0.007564309997867885	-0.008648763280269823	0.002596083706359765	0.004511601502366063
-0.007601618473697542	-0.00429917528033893	0.001708184999595899	0.002509454536511397
-0.01018003378189068	0.001574479912688588	0.0009852542145501774	0.001556762051040941
-0.004951864044503908	0.0047127004827897	0.00266738350668524	0.001331577162917405
-0.003175076492472376	-0.003509848586564814	0.001876989539264374	0.002468269061389064
0.000870224518011572	-0.005754246462277744	0.003512686005419105	0.005428493772713004
0.003897955695001123	0.00766164300551191	0.0003149822759036936	0.004240790450210833
0.001952803110453273	0.01779866495949672	0.001104136387826888	0.007824982380769764
0.005019727168277584	0.01475401726651908	-0.001274329394979228	0.008726206161307296
0.004320123360320889	0.004026466310714874	0.0008878598975111831	-0.009708689230407077
0.007469196762699374	0.006194051569430523	0.004823217488622938	-0.0166809910094827
0.008088362558020418	0.008803478170027633	0.003122333035104019	-0.006320690414360742
0.01536552734193006	0.00713116744489397	0.001817219336105808	-0.0115991283224743
0.009580215525122596	0.01019510142648198	0.00275333612275056	-0.0055685094539864
0.006956961740822545	0.01164407261360918	0.0007738674086143349	-0.005291034793965904
0.01100725070337669	0.006850312801492025	-0.001829834937167564	-0.005264172520509926
0.005385904700568874	0.00469501877880607	0.002340241433014985	-0.003501072281043259
0.00929775692250112	0.003604205517358429	0.0002374525260415987	-0.001753613312463994
0.005429019885483667	0.0004053557397137545	-0.0003692384957216552	-0.000832412361863773
0.009452517211861444	0.002993002489853281	0.0007776686758431773	-0.001798958642005276
0.006108047917092044	0.001855167303176801	-0.001871628144387071	0.001413766769836501
-0.009569936944338968	-0.002748423770076976	-0.001913698892446878	0.00115228206074652
-0.01099063305781626	-0.004766996955824953	-0.002416000249207337	-0.0009112782566209686
0.003362943899975189	-0.004202167638223047	-0.00253470021527341	0.003562917473788841
0.01121926978742958	-0.005149994924946661	0.002345204158325004	0.001708139064422037
0.01015556793166427	-0.005791813974286283	0.0004450066260295569	-0.00147627137359915
0.003975526765317395	0.00298494923260309	0.002228888307408657	0.002164545941969643
0.0006214776854831788	0.006917320837550876	0.0001456810282654175	0.006204539721338003
-0.0003335831348455049	0.007186006044685678	-0.003590926258046553	0.001155692440153875
-0.001100314450944506	0.003931121014263158	1.628380351881031e-05	-0.0003093506685880029
-0.00911075953149823	0.0009421326594737333	0.0006007796566948226	0.003832150654858133
-0.02090804605661001	-0.005386429973621662	-0.004219733134115989	0.004405976424809778
-0.03264968894059327	-0.005335755950443334	-0.006411963639014163	0.003270560468178358
-0.02376520905909039	-0.003830321294254881	-0.004678668568670246	0.003408418341400619
-0.008173824795408683	-0.003029264264553582	-0.003007215759137668	-0.001013487346571031
-0.007207884730983992	-0.004068866528293576	-0.005018167511853998	0.002224890531139479
-0.004247487499538143	-0.004723392479151498	-0.005377912446452675	0.001223332952375722
-0.002097965249171313	-0.004982882692578137	0.0001636262009429172	-0.0008813012137280986
-0.006886548108008174	-0.005925903777430809	-0.002319424282335339	0.002493307832109325
-0.004296635680305125	-0.005553297188850545	-0.0007525621744795071	0.001007962342302346
-0.002234889709819084	-0.001935932142250783	0.001103932707175675	0.001241668875932012
-0.002047726887104553	-0.002522335648859649	0.0009676091848388995	0.001486461493972543
0.002318874263152143	-0.005193649035795172	0.001520563588573289	-0.001299409412354865
0.004954204014192938	-0.0007853550068017989	0.002470364046226379	5.903434214246493e-05
0.006421999786878262	0.002024694761491704	0.003216124154134101	0.0005052356977294355
0.01578118882153476	0.004757875346293875	0.003134881181302252	0.003072675221996635
0.01180648773258645	0.009021529210630132	-0.005060468298381061	8.695287779425611e-06
0.01209070600118031	0.001924752819926754	-0.006799515151917497	-0.001098541151430259
0.01160791561957228	-0.004924270644451417	-0.004850973856578217	0.007905048919506334
0.01122211687168867	3.476110197192444e-07	-0.004138943187000128	0.003988739564111872
0.008646440827412432	-0.004019976510380483	-0.002097226615438321	0.005364901439326822
0.008040787073811539	8.791774448095166e-06	0.004328574984063946	0.01115842875050019
0.005391909849919062	-0.003499661005608712	0.0002177097088084569	-0.006483572581628298
-0.0007420817210050493	-0.003579589811535859	0.001508850459264776	-0.01634727553148816
-0.0002518668108513295	-0.0001939989371991178	-0.001175059507825921	-0.009790583030473457
0.0007442003319051886	-0.0002812807744290688	0.0005019159817221305	-0.002710778670755051
-0.0009553229716878747	0.01225923748360815	0.002752001085531744	0.000363413167916176
-0.005139509465385448	0.0171801967461915	0.001169261033301363	-0.0007672129657310777
0.001912950089995686	0.00414460694186154	0.00361192720063874	0.001734970762742931
0.004068766628206671	0.005795216288325271	-0.002348633067441301	-0.001255193949486508
0.003334028100599501	0.006623254775084804	0.001315491593766985	-0.001873750521751341
0.007112172414182479	0.003957898117377636	0.001751157834007563	-0.00218798933926196
0.00625618720370889	-0.00125674875028455	0.004968114124441238	0.001385909240611692
0.00468274096831981	0.001884441075688282	0.001006779482072833	-0.001931352288145797
0.001477241098372932	0.004859747682430608	0.003769715196325224	-0.004026023962984807
0.00224179728809894	-0.0005196600780498689	0.004138950596839748	-0.004923089277736382
-0.0003306225602078621	-0.006407026692065968	0.001397395573046091	-0.004913045501041953
-0.0009833704367145516	-0.009239179318732933	0.0002919664996925096	-0.003284586573990687
-0.004116798886597094	-0.01141947647268142	0.003510182593486203	-0.003172452127125641
-0.004392690381001098	-0.007631533188525461	0.001699239952033298	0.002512410877321123
-0.00899665997952233	-0.01424926665775715	0.002874937941936493	0.01810102494055557
-0.01443072240303564	-0.02138808042160796	-0.003014132031395214	0.001081022796610475
-0.01110160331200371	-0.01967861412262535	-0.003426959738488047	-0.006489659575255806
-0.007762206540035009	-0.02067232163683511	-0.002668709415177383	-0.003003680644805746
-0.004959585987090639	-0.01075959471043299	-0.004876518349964439	0.002537667857803507
-0.005650217020922218	-0.008181110659131678	-0.0008920983564378789	0.002941604256195168
-0.003858687180441756	0.008643394520496336	-0.001841182589279343	-0.0009746752787672701
-0.006867321381227475	0.01464033074402756	-0.002339144274934141	-0.001465613778964543
-0.001187099711947951	0.02515285895177749	-0.0004517984269100025	0.00580834846818055
0.003893087202143473	0.02787093653675149	0.002521882498132254	0.0061061898039892
0.0038293841987489	0.02920639072783873	0.004781922023828769	0.0009041664619867036
0.004524056139510796	0.0324738408187123	0.00545374577294915	-0.002094797919501615
0.005141260724056722	0.0260752888658167	0.003571919034961751	-0.00320253255282623
0.004033457703984722	0.01598021023214065	0.006312945451066211	-0.004574510856371956
0.006999032607790216	0.0169294486371205	0.005176950481010998	-0.00458579458323226
0.008200971537457224	0.01215781492217437	0.0003421351777828259	-0.003937792762574862
0.005571685112817327	0.0016252547006799	0.001559084514186796	-0.001866274227455163
0.001866339167770871	-0.008003980707884344	0.003475440201256804	-0.001356318118727175
0.0005959699893665046	-0.007558442754980151	0.003889009710498194	-0.0018891637671983
-0.0008807144083400998	-0.009264161338585238	0.002650461702667678	0.003025385016265768
-0.005905200988744635	-0.01572826313174414	0.0006017179014688872	0.01031066890454244
-0.004863897810307098	-0.01663904870326673	0.002029547434767569	0.00581209841397872
-0.008811230085350518	-0.01951800749124762	-0.001024712745903926	-0.0008647833541613601
-0.009814481259114247	-0.01660515629166729	-0.0006273493477623186	-0.007545371070412839
-0.001582213492236756	-0.009629179305082733	-0.004392463713752943	-0.009495624357159701
-0.003440702311216301	-0.008902789423225614	-0.005908231123898842	-0.00184113237210371
-0.003784313970045683	-0.008668821530839851	-0.006739224891544646	-0.0008787302267112734
-0.00465242401632416	-0.005553985032655063	-0.00479853250800233	0.003573413588143115
0.002710710013233288	-0.001648198230033217	-0.002917029534202992	0.006903173502767974
0.0002007414617572846	-0.008488434906857547	0.002858321877473141	0.00439672861823594
0.001073781540190253	-0.01052712732303002	0.001105198469542102	0.001049029460063471
0.0069406163398575	-0.004988613742963363	0.002049221461409932	-0.00486995628245005
0.003892462838151356	-0.002757519916418345	-0.001547710017987618	-0.001542673870225193
0.004941232817085217	-3.910571969642879e-05	-0.002122170896319623	-0.0005901863989135185
-0.0001594364305152171	-0.002495001319859616	-0.001383729803545599	-0.000659425146329944
-0.002397174393858819	0.002596812533071583	-0.0005788357551733875	0.001029205589673124
0.00183630489089455	0.002889526160089185	-0.00309595221875888	0.002487300052721828
0.005597505893678277	0.003398970341529132	-0.006976077761531371	0.002545686750064365
0.005414166716186398	0.004005219056549586	-0.008055294368681817	0.0013515432725477
0.001673016316186715	0.00222277420235518	-0.005048001746782707	0.002289500230103578
0.002055160769339291	0.003416038273546068	0.001186145581912376	0.00558889771082885
0.004964285216092223	0.004629777777480131	-0.0007743812765241849	0.005166406955079543
0.004246341641215467	0.005540693655993364	-0.003608081313507697	-0.0004622272702224383
8.16132605204799e-05	-0.001483638215598641	0.0006116903103615516	0.0002120634628734527
0.003207169926855025	-0.0006151969528233285	0.003055480781355612	-0.005091912584379362
-0.002595590693777843	-0.001420700239249864	0.001378502647415291	-0.002357522022209284
-0.008724515029356943	-0.01090366218276513	-0.0003021001293161544	-0.001474720750883321
-0.007995037872643841	-0.01044976210472865	0.0004108065248645925	-0.005524397622788445
0.0005661704258797047	-0.005040263114548994	0.0006798087571049336	0.0008509411248885808
0.002237674504170738	-0.004300027570023397	-0.003715217446792509	0.0008207320563118216
0.00605622478108106	0.0005403651205767047	-0.0004672731963569278	-0.001416512710005445
0.003820982347994502	0.0007650447332526214	0.0004800629285421187	-0.003341698009158805
-0.0002599706105932986	0.001671436142511775	-0.002791563652986038	0.004687998841597855
-0.002742381328916605	0.009715322907730643	-0.001857597150216228	0.002683202406196948
-0.006010174326908451	0.0180154601012915	-0.002746078639514537	0.005106810123831185
-0.002133373752378355	0.02527998802644739	0.001068298966676159	0.01073228882522652
-0.005383179060112241	0.0149181995150129	0.003229786217375249	0.009037161546377209
-0.005892338485185956	0.01055672833288495	0.002919175855039091	-0.01191929176481435
-0.002898824713414396	0.008597497516407926	0.001187183821738178	-0.009936179500028793
-0.006532157218903124	0.008172116098266444	0.006683749347512895	-0.006002937519517822
-0.00446272955942729	0.004876856715607026	0.003877708785720164	-0.002589300883875485
-0.002429953668328054	0.001833482172195696	0.002365358265081177	-0.002353614445287761
-0.0006149005090307144	0.0003749354660627015	0.005629924501867743	0.0002020775566728765
0.001929738214984324	-0.003487214969872793	0.00176623360419526	-0.001299952681480292
0.003053898800378989	-0.007832433220721685	0.003156604409540411	-0.002640475843921451
0.004836705397271554	-0.01183758863620574	0.0009695682777105713	0.0003637438018619547
0.001137087261464734	-0.009257278010111974	-0.002971509140937255	0.001099998775016358
-0.004195070536653765	-0.01015324874298681	-0.001544670293595516	-0.00178655106074833
0.0001061053912503343	-0.009783450209567933	-8.37221095556387e-05	0.002851568922303685
0.002551872888631605	-0.003333290028818959	-0.001135733058262312	-0.0003947950909030757
-0.002920230095844545	-0.004856008372016561	-0.0001574251427587018	-0.000595142398987458
-0.006087444150318482	-0.007569643605753303	0.004674089398327707	-0.003493438788812446
0.001967804840430884	-0.009199830240304265	0.003241300575597458	-0.0004451195186182728
0.004878825283907645	-0.004927725578722473	-0.004335941147823812	0.002721076892440222
0.003045978565234189	0.001588841301924252	-0.005854127173561343	0.003482571082561896
0.002324357652059313	0.00818542923118403	-0.005013241440545276	0.006090025904156129
0.006488700531422587	0.01139248774795777	-0.00108597774827432	-0.003687590701442847
0.0130301234478167	-0.001006344780986086	6.312531016152935e-06	-0.003439059325111812
0.01287782168270996	-0.01181923319953887	-0.000203192397139741	-0.006054954938552395
0.009832721910658654	-0.0128548592458688	-0.0004183982964014601	-0.001434491889330894
0.008909875788437886	-0.006446001596239533	-0.004225589833391431	-0.006931718713728386
0.005059939152418566	0.003719316761273276	-0.0003624023850391812	-0.001697594902974644
-0.003935968395847087	0.01156583935862999	0.00514052375174257	0.01887930911193451
-0.004405268204960772	0.008395270877857037	0.002224031888962791	0.01363450705298295
-0.007207260563109105	0.007678486341688439	-0.002042509591045616	-9.432368261445784e-05
-0.01045876588527911	0.005343160888241415	0.001630940594871429	0.00486749036014005
-0.02496138811680875	0.004725787438271923	-0.001813612175558435	0.003647400944508556
-0.02258236044065517	0.004683480449678531	0.0003693245387111381	0.002033211104431296
-0.005044567615362288	0.002783285442925268	-0.0001278760528573847	-0.000869407427072672
0.003216336418888724	0.01123222031132459	0.001750531459738969	-0.001332749687801891
0.0025160917408596	0.0113128328576433	0.0009588416723789306	0.007607576441734199
0.002282238070262021	0.00283083040445953	-0.0001231100542249577	0.002979393784081254
0.001806405461107949	-0.003870034829638936	0.004326582433099294	-0.005478983324790723
0.0009826242881032794	-0.00631663511973207	0.001863230833720691	-0.003490434156525228
0.003324399682183883	-0.001274249189323155	0.0007473186846918592	-0.0004482627932547763
-0.0001465344633719578	-0.007842928184756662	0.003313609086232355	-0.002051408567204539
-0.005775372279585362	-0.006811853427941043	0.001085093042280057	-0.001249321661305499
-0.001180181215866268	-0.001613936341848437	0.0004462053564018416	-0.005091314520559775
0.0002632281460920602	-0.006079566712993215	0.0007140756719151124	-0.006611838457181714
0.003690413827583129	-0.01144426826666185	0.008171363040916868	-0.005321449240838186
0.002617446519711331	-0.01387592152633279	0.005310034800854886	-0.007560051356562493
0.003113243877659386	-0.006693028305016386	0.004260335759574433	-0.003660384792968889
-0.0001126577506251971	-0.004364984378638	0.003731236349149597	-0.0009487211763129906
0.00395647995396308	-0.002203847127483929	0.0007503928729805991	0.0004787311572120123
0.001179314735068022	0.001575308703879901	0.0008326365758661937	-0.0008707787690041614
0.004976294088722132	0.003909689952894341	-0.002185906801875992	-0.0008409912707534278
-0.001793087019507202	0.002765561760561345	-0.009559923028464111	0.005266472244476322
-0.006725251903638023	-0.001709601244923848	-0.007923102987100722	0.008316459218104703
-0.002768421035597826	-0.002443503153423667	-0.00614169543255712	0.001256718075496069
0.002372098466834021	0.001649372048330121	-0.003035692661767773	0.006295734415566447
0.007054720947892754	0.005168118052306924	-0.001811811340383497	0.005852874562363335
0.006312949068716551	0.004072463988256752	-0.002292687205640671	0.004424316486454145
0.002833425708474983	0.007227426121299375	-0.001456583969777682	-0.0003572304949700229
-0.00203843452198145	0.001653789647467954	0.0005923399880834496	-0.001023758383014993
0.001744519282805678	-0.001919276160051716	-0.0002737008708211938	-0.003980107102472625
0.003897143400584035	-0.003814745840756185	0.0008434404690129509	-0.003862656959060551
0.001487725648778473	-0.007318028282441637	0.001700198265638578	-0.005234602038757047
4.5526644212632e-05	-0.007193802231952291	-0.001724461952991495	-0.002890026054497481
0.0005971148085911899	-0.009330602325810266	0.001218292909205466	-0.002397680766371484
-0.003387528825899849	-0.004154502243861146	-0.0009603587802056652	-0.002227505499866474
0.0002247464994063775	-0.00182566655793871	0.0005990978750426597	0.0011368536146366
0.01247165753416521	0.01387916788693206	-0.002777680764541087	-0.001439840237323172
0.01123486889977234	0.03104441349083598	0.004739366722300391	-0.002065761122313796
0.009857187053145554	0.02102975034709246	-0.00508060287793183	-0.001039286729991933
0.004927227971433657	0.01490620159666897	-0.004651355286666747	0.002040708589924425
0.009093197980907209	0.01332830674750316	-0.001578100259781236	-0.002916426425348007
-0.001637137024720789	0.005270762630876323	-0.004397609765509345	-0.002153532088587324
-0.002358450276871323	0.005202634999903403	0.002130930556498364	0.004695528897383125
-0.004663064562998061	0.006135185913435922	-0.00129350447494814	0.0177713947976413
-0.004021164533949101	0.003454794432466217	0.002535660446989968	0.01086164401550525
-0.0006947468314531496	-0.002882614867734025	0.001771656794939942	0.01441088488950991
-0.002210112592827113	-0.00640318745068297	0.00187317328347925	0.005178358368181256
-0.002364128687731798	-0.01171865556591254	0.002249329550661973	-0.009419852028563495
-0.01095565990697779	-0.004355023484475544	-0.003011262134283189	-0.0166103515688288
-0.008795474226012127	-0.002260089999312195	-0.004922322421834228	-0.01150375852889842
-0.003807053583054414	-0.0002902255428161851	-0.004954022507000113	-0.01079262660465682
-0.001434880799978876	0.0001483191538343387	-0.003545674129404536	-0.005321379127741038
-6.807348716512914e-05	-0.005654427616847556	-0.003817612803331492	-0.0008416703616268326
-0.002674054301048087	-0.007623785658112065	0.001878725364627823	-0.005922411173443826
-0.0024230075048159	-0.007620492715103037	-0.00153326241120739	-0.005361935994903167
-0.003659756759583922	-0.002467656134757736	-0.001660028219144441	-0.004481952116577792
-0.001755281722494863	-0.005555522573994804	0.003792735272348743	-0.001552743144610483
-0.001320699562173038	-0.01493982398760685	0.001925613615191029	0.002552308954030939
-0.004641751358819196	-0.01205983573004799	0.002078766610765711	0.0004049983483957261
-0.004380469636610669	-0.01116015054826288	0.001757390605460644	0.0002090944826501218
-0.005566054181431281	-0.01052877979352591	0.003365718624015622	-0.001397797281364456
-0.006461861312238477	-0.009426641319717481	0.004176142951306651	-0.0005847725980450799
-0.006146561781086929	-0.003220723930901691	0.006072184507460725	-0.001754593524036016
-0.001367258483755035	0.0008116167332315804	0.003030214538853382	0.001396251427295616
0.0007552884048474516	-0.0003195958305923843	0.00597981823815299	0.00284225956885604
0.00394666573453409	0.003033684153932077	0.001274474215830956	0.000938593136951912
0.003439886948288113	0.002498209195935625	0.001855892265908189	0.001332106869930532
0.0008399861214599955	0.00832917632726984	0.00289889596214625	0.001276294881840207
0.003772652398731479	0.006922589853106501	0.001982747981161113	0.0010355720881148
0.005644225499083894	0.009521754624583914	0.001533065434515088	0.001909712399964298
0.006784049683105335	0.006706087439208581	-0.006101603925125708	0.004398153887862375
0.01081251712561266	0.01040665563254928	-0.005686710379418722	0.001986680254472673
0.005564932976662501	0.007597952930399504	-0.002540395449241352	0.01072422015668831
0.001747292700700215	0.004878752173106665	0.000367284267438931	0.01011987193150107
-9.511315099908828e-05	0.003934100679534478	0.0008165870527896321	0.004874590666281479
0.003214607890427116	0.004608942211531123	-0.004342410403081214	-0.003306674165055163
0.002889812625305535	-0.001656496925973854	-0.001221560457113248	-0.001497298529470301
0.004000014988498055	-0.00150924007518039	0.001057520639568989	-0.0002595000610432956
0.002560309497155943	0.0009964697687673341	-0.0006763570142626135	-0.001546941820242465
7.004679363525963e-05	-0.0009111430251782522	0.007266869796219375	0.001050762969163265
0.001203264670449044	-0.002002691461608969	0.003910669537190594	-0.002316413554864471
0.005047898905478246	-0.003870996541369729	0.006874514978623456	0.01603805249010675
0.001779022951224826	-0.007054242511393504	0.0009012047730618141	0.01270494024136238
0.003813746315417327	-0.007679666599021403	-0.0014551689604963	-0.004950226476692854
0.001362087263658685	-0.004762508542270527	0.001539977196140272	-0.002727708874597696
-0.003334886806353195	-0.01801177537474541	0.0004946440643434594	-0.00389646340904347
-0.001601617672342976	-0.01991859396575869	0.001701225930202723	-0.00192995455060962
-0.003952310180981411	-0.01497028283840837	-0.003371599794294378	0.001537890195408336
-0.009442423654761355	-0.01115211355803211	-0.0003758285735079695	-0.001448092461988337
-0.008964034982920534	-0.00220710997694169	0.0005723364035586879	0.002682027169583543
-0.004789506802784773	0.01106991470515583	-0.002366782965795458	-0.0001305862803690159
-0.008804217436690595	0.03284572715008946	-0.003098324066601356	0.001179063386087984
-0.002001409407827674	0.0446431660187455	-0.002434637657523841	-0.002435703160194967
0.00113105941145357	0.04011598776995774	-0.001716080717653556	-0.001527487181987187
-0.0004392860678511256	0.02591683657340014	0.001195284641761559	0.002863480403582423
0.00477377469593546	0.01673890199557715	0.001832274574624477	0.0009706905564223028
0.008352301797376433	0.005959320052299661	0.003003161610346309	0.001948997799200117
-0.0001185731281690863	0.001469042390670748	0.001126233433442488	-0.0005130069521016332
-0.002207790012669922	-0.002345015742961107	-0.000145076639073016	0.0003920162764333763
-0.005351164197307612	-0.001256186353299709	0.0007819715137723714	-0.002969407167910449
-0.008566226804355344	-0.009319457264456191	-0.001887239493680857	-0.003195763139762068
-0.0009754641093132392	-0.003760566705207862	-0.006372359261556341	-0.006745350701314747
-0.002374057700604173	-0.006222689874467557	-0.006158399766604219	-0.003200723878880914
