-0.0172799124301925	0.02441885504783673	-0.06236614780787693	-0.02420094568270294
-0.01144506505907907	-0.02299811861403989	-0.06416623433333322	-0.01430732081801131
-0.02521376565447171	-0.004002390217862621	-0.03359981683067399	-0.007292603506301361
-0.02018585269565472	0.01195496897423971	-0.02040073049907571	-0.03871498874705048
0.01013320367499285	0.0362009932303327	0.07319216791411297	-0.02589166414378378
0.01546564116497436	0.07041284430738654	0.04613265132846575	-0.01789403839878505
0.02274363635652928	0.0727509014804862	0.2093461020041363	0.04708222190742194
0.02525036529931299	0.07260468998690046	0.1989546130770123	0.04821158670179356
0.03332328081977595	0.05491474432526309	0.07443769061657236	0.08420858425368934
0.05095997636355474	0.01410331901163278	0.05117146862362286	0.005896074829599288
0.029411185615831	-0.004096803836014459	0.01330218085328382	-0.02892289033916537
0.03040997906001707	-0.01123677144947544	0.01238988656319729	-0.04450795221509087
-0.001707890314522887	0.05725228430297172	0.06043124781409145	-0.03923506577511513
0.00123481075865158	0.07070407791201112	0.03006990811814299	-0.0139136282472263
0.00405790721791416	0.03129966797846748	0.065960429244209	-0.001299738707025904
-0.03389463677887226	-0.0108783084626392	-0.01375731593588847	0.005074111084381833
-0.003804287116062061	-0.0299040507746611	-0.04197050583069366	-0.01009695493960004
-0.01398443767619733	-0.05313624471081001	-0.1052524037299238	0.01090536744359983
-0.02281373085016383	-0.05585118749207298	0.01030173547117389	0.06329890317063025
0.002038373277134115	-0.03532668886969308	-0.02180175773649601	0.03430739835572364
0.02871657041411126	0.002147653703984104	-0.03416636737832354	-0.01325433679656754
0.04743985243811885	0.00758011222046719	-0.03457035497232665	-0.05196567379808895
0.03385207050413461	-0.02405052637833811	-0.009050136498375013	-0.009495212665072174
0.02505107903429566	-0.02908070329627075	-0.03348519735803816	0.01625262409125456
0.0201893572604397	-0.03032482703898248	-0.02854727487512858	0.008280651632584842
0.02168048697681895	-0.01851677168249322	-0.02089103138375965	-0.007654209604230646
0.02807433760452843	-0.01596767838396704	-0.006950596954296123	-0.01364416627570263
0.01731527929164623	-0.009222959929884346	-0.02317985511817945	-0.0298719225817602
-0.05088408555122656	-0.005246538806375126	-0.04706245652610212	-0.01256672044188089
-0.05473895712186841	0.0003614158577469796	-0.06047963085340112	0.00233798302655349
-0.003662281719301848	0.04591200359398208	-0.05572515987081002	0.01223827257687709
0.01187418361807974	0.06432564336390809	-0.06911481692004844	0.01757147971477978
0.01477936068172702	0.06384669715852218	-0.05456256360584537	0.02498567870899507
0.0242941625151342	0.03707305542753217	-0.008467126206446676	0.02807657580466846
0.02892381517299038	0.02320881383540942	0.1004316274352157	0.0397572376091374
0.01900443126414452	0.008488828765901091	0.06925536531357175	0.02547232100042684
-0.00479520501442476	-0.07613555086386309	0.01442004859788375	0.2460528210652454
-0.06980717149673525	-0.07734664408614526	-0.009918601363298214	0.2834076115736769
-0.04056777340815444	-0.055164366478079	0.06029206294682568	0.1384005069141442
-0.003667575524038685	-0.05406450376625133	0.1202432350512029	-0.1592761418494862
0.01981584150396752	-0.06838732590980663	0.07320310911293539	-0.3052543226676704
0.03209255140204837	-0.06621023087897272	0.009139399067570898	-0.1661038507015752
0.013930284546127	-0.06452418271204718	0.006191830958518244	-0.0673028089128002
-0.02070780906110881	-0.08789203013898646	0.002600784954625337	-0.08565384902261612
-0.04113668865351761	-0.0355762600684247	-0.03371758782909984	-0.03782188144615327
-0.04720260911313517	-0.0140047124395902	-0.09743697748993019	-0.04496530196317251
-0.06879099667371796	0.07068344102573378	-0.07100298251313074	-0.07863199463431454
-0.05707334554034217	0.1353882299995456	0.02732786709916254	-0.1339585591910655
-0.02012378781724158	0.1819450046630443	0.0873878543770511	-0.06267050361622523
-0.02304543580116892	0.1750043851369978	0.04821353420924981	0.03513100232528489
-0.01725898243109813	0.1192372338111191	-0.07166688409680969	0.03310021626381002
-0.006473960396721709	0.06946780005562715	-0.07380328578399872	0.02145098735110801
-0.009889142321854746	0.04728172189251603	-0.09057929441295252	0.00173038029149619
0.007378425355156894	0.01385050090046435	-0.09297094074625353	0.004049934070582345
0.007788651445098567	-0.02625016080502857	0.1146564851050106	0.09235014680033277
0.009977108358010878	-0.04221875451776549	0.1645219476860119	0.1065456495184249
0.02522754048886858	-0.04387330961322796	0.05144171669349386	0.01937056063280174
0.02107769069931683	-0.0409686966290808	-0.01856973950809869	-0.06733681645216112
0.02668101816561687	-0.03888594939646259	-0.03210592555344136	-0.1147677058391861
0.04069910464373807	-0.04477800361155111	-0.01407376599674219	-0.08374163833771918
0.009361131167601865	-0.03787170162323265	-0.08463420571511997	-0.01925960678282888
-0.01505300935193299	-0.03962232556978876	-0.05447780091155303	0.05031416661187808
-0.005972293577128329	-0.03652453989344234	-0.01107966313138651	-0.0228466553186269
0.003672887487952432	-0.02374173943568068	0.02401034544100349	0.0831209653150545
0.02269587282712517	-0.04175840872448694	0.01277215734409408	0.1067605508638683
0.02169912501805422	-0.05492216726362456	-0.01838335646075393	-0.0008584559715391036
0.01694733388047028	-0.04946565333180486	0.1109099944988545	-0.06108288834510015
0.01976337195128718	-0.03701706624533185	-0.003441826256574525	-0.05940592306802182
0.02833304550519301	-0.01012606856368242	-0.03786405715767484	0.01288431380613956
-0.0471587352190744	0.02113587838592218	-0.03611360365938878	0.03440020685684375
0.006015379546974493	0.05072330067287072	0.005927062139440008	0.0312050845097252
-0.008365817041290139	0.05434349181345242	-0.03264062298505236	0.01924034811448079
0.005651111375151063	0.04856433269095935	-0.1401742250269117	0.006644769811608379
0.02065765269956787	0.02108164867738723	-0.1818650466519778	0.01514679511548017
-0.004160099419701308	0.00206614249890251	-0.1362048334570544	0.0510657166939784
-0.01073614067567988	-0.01185650923376778	-0.1714684050364031	0.07675739801378109
-0.003671677037370501	-0.01001057491541437	0.09312691201939179	0.0876144653161374
0.01552010226962619	-0.02380036512075039	0.265226958782067	-0.03320547115769303
0.01861758978050414	-0.02142099463534505	0.1290723785515799	-0.05178286313723466
0.02109058875779442	-0.02711562992806767	0.07302989874767335	0.01781214476275512
0.01709923775806654	-0.03489120574118846	0.05628887276518475	0.02947653442384375
0.02168522577435234	-0.02969227952624054	0.03073329709909176	-0.002905936400111361
0.006958090692206509	-0.03445946447454714	0.01138895914277378	-0.009508921322485101
-0.003585988723943404	-0.03244348647350608	0.004386671605510515	-0.03387401866806919
-0.01948095971649789	-0.03179678695323473	0.01510994855059039	-0.01479271504139957
-0.03637908623685658	-0.00999994213733028	-0.006636950168959771	0.01321043605728931
-0.04372674567088595	-0.01291400387633624	-0.008924206411269552	0.01769286514272716
-0.00558442228642976	-0.001158603368054475	-0.007778018417932151	0.0578407391975967
0.008123505323791094	0.01700265343364469	-0.02545674353716425	0.1399089866279706
-0.006250597146479056	0.03374788354136762	0.01418947392041195	0.1375186516373119
-0.003208346509223733	0.06401556109723261	0.0630054008694555	0.01487208827704622
-0.02066347212975781	0.03517707603508192	-0.02728649555937753	-0.1745572659606048
-0.04326556911218828	0.01394640124358258	-0.0604247165459072	-0.2439484444979097
-0.02053370638727875	-0.004215251329110326	-0.04750951304830656	-0.1007476463324529
0.004277643597169848	-0.01703346295203451	-0.07172901852221548	-0.02725123120118931
0.02179267083481341	-0.01110359961958357	-0.04240813130401819	-0.01625072733454598
0.05105470278617208	0.01708375484667979	0.05382433611970022	0.0389408235199172
0.0509238394437399	0.04087381193451366	0.2679892926652808	0.08624217552402906
0.02237195538714836	0.04801899340282668	0.1337993512553001	0.1105607560046312
0.03430404126614391	0.04481417019557322	0.009675902925062586	0.06465852788212052
0.02280226492390511	0.04274236023799683	0.04399016978029587	-0.03054736307967907
0.001370995443649075	0.04671538875131086	0.01948094820147098	-0.08681453034715594
-0.02156424695310225	0.04446202988488878	-0.01538085670086932	-0.02024799380975294
-0.08455471198742728	0.0194531705828428	-0.02699427440049446	0.1656727144588311
-0.07613703611953675	-0.04572975047363396	-0.02197204235159472	0.2302155359474589
-0.03115528403100965	-0.06454786673250013	-0.04295413562191218	0.1485113784807851
0.004459528028888835	-0.03737082702586022	-0.04007284523412442	-0.09605925729857191
0.0221368335039778	-0.02819802796958449	-0.0008676490324032207	-0.2889992544290031
0.01457211524229275	-0.03102663468583396	-0.01552989247854393	-0.2285924234749241
-0.004583190481271728	-0.01730228046655008	-0.0297886532790289	-0.082115083363171
-0.02463594340163831	0.01594535258243076	0.01595303655430674	-0.03041090120218149
0.0004128209663480433	0.02818595327427263	0.03908757836492632	-0.02571607610901273
0.004797688260572818	0.02455207468448922	0.04114867841695505	-0.0241511900642268
-0.005294437239177736	0.02499319743052806	-0.004017332145983185	0.01353890344886885
0.01921107331922173	0.01484611087760284	-0.01826520658345368	0.02259624808591148
0.03050529456252576	0.01132046081326416	-0.03470786592646437	-0.003961750684388233
0.02322232870073434	-0.003402863862267826	-0.03487012104632412	-0.004600377537437431
-0.01467859146070715	-0.003171772834550918	-0.03968732025623049	-0.008146175427597289
0.01494976062208771	-0.008354796190519912	-0.05439690875513186	0.0946473714743051
0.04941684193857347	-0.00576260060895498	-0.1163622341243776	0.1908345334538888
0.02120561267088448	-0.0197159383174536	-0.06616966285286217	0.1434337638062373
0.003879400250360399	-0.01658431453777334	-0.01859147601254145	0.01983402628224504
-0.008960723218312504	-0.06409992193621962	-0.04233172742243388	-0.09778507543836797
-0.03343521983297006	-0.05685584110196696	-0.1225436655064144	-0.1519940739594709
-0.008622392918603216	-0.0465057572236851	-0.07785526735804561	-0.05442621761247163
-0.02904264606015238	-0.03804538471455775	-0.0825987389007915	-0.02212700674470124
-0.02763101608472163	-0.01457078509651861	-0.09084342153182899	-0.03439749194110011
-0.01182503045749176	-0.02374273839331697	0.07464914625370064	-0.004200588246429728
-0.01680505791135747	0.01007177585168672	0.05388337994602354	0.008439723335779819
-0.01216289519052814	0.02318057283846434	0.07151969708030437	-0.02235976949573896
-0.009126217031004084	0.05758290865429115	0.1380719850982723	-0.07100668999518996
0.007211392899872866	0.06438779768279315	0.133917750373185	-0.07168675657420101
0.01096879254611716	0.05649295491117046	0.09693748582088793	-0.02235040941447919
0.02739757750353568	0.07664368368074989	-0.04862093658996774	-0.02029135356565738
-0.005427300787196594	0.08812821154822197	-0.03846410706899864	0.06936103140865109
-0.02476251324599376	0.04961065509424861	-0.0003747136213598624	0.09159221908486999
0.01401533042616366	0.03982727135444933	-0.03734982805716416	0.1665754540976414
0.03133802956658076	0.0218288794376245	-0.02368695543607315	0.124504590460105
0.03273944070662956	-0.01113659447292046	0.1837843453133147	0.1144654046754647
0.01855316771566253	-0.01567380734736436	0.1447470458632076	0.02710765701345237
0.01765125885397211	-0.01873555181558725	0.05553228279588106	-0.07282641470324901
0.01326739795878843	-0.02591018590869888	0.01388430424898414	-0.06128526219480687
0.01034572832277741	-0.03330281084610097	-0.04501556090963601	-0.06206445098901377
-0.01017388441266729	-0.005922094969188321	-0.0614240225424429	-0.08461676329535857
-0.01342053069796026	-0.02612211867615323	-0.1054826669958943	0.0422799594872086
0.02054123314557435	-0.06075153117109421	-0.01520416326632696	-0.009575991436304356
0.01622240016685523	-0.07152465731698759	-0.01497233424077229	-0.07727716750168838
0.00874686249979427	-0.06105636652299398	-0.0961569892371954	-0.01434583438487531
0.01754560865738482	-0.1041414205690412	-0.04387733961819928	0.01366587937475755
-0.009480576262101199	-0.0789320909286612	0.05287548928762602	0.002951925663060781
-0.02541969302816334	-0.04635130118888563	0.02022528755131209	0.02317448332199758
0.003692136527766446	-0.01251510049728398	0.03087658708414102	0.102765058763019
0.008348208351274738	0.01782199157777977	0.2618250170320319	0.1512737751453815
0.01925612750260223	0.05276975582018271	0.1458589131363988	0.1058902032808217
0.007644355564064698	0.06095847696400034	0.03998782763919249	-0.04076407486824118
0.002227291768997104	0.07277118352884424	-0.02079533013393065	-0.03893455255427169
0.002846210867663096	0.09861319601574395	-0.08555152420957722	-0.02144838773835946
-0.01058788826869904	0.1084290375223733	-0.09490311633178994	-0.05796385036017142
-0.04115391559975722	0.06337275620283292	-0.1081332343310158	-0.07439996367678217
-0.03887095278398075	0.02502838817299562	-0.09887252344917927	-0.03891212699249171
-0.02126410339078282	0.009346412402278167	-0.05119903925869281	0.00927290631586225
-0.03152222192791532	-0.003771565628919852	0.07721275818974874	-0.03881777489514183
-0.0007632668292162776	0.01007121061246903	0.02530478264445092	-0.0811312898858247
0.02391510536196357	0.006354658485970314	-0.02721255432858798	-0.08446551518866052
0.02406030076651937	0.007378602531670379	-0.0005548004649131646	-0.01545251521442029
0.01699779260151265	-0.003177633965392619	0.02637151284859459	0.005545357209836186
0.003115907148989822	-0.0203587928620442	0.003216507721868126	0.06879194995503937
0.007009697380701233	-0.03885145056093945	-0.02713485354398184	0.1085226481486156
0.01426194657010073	-0.03763914240609451	-0.04456297165861796	0.04921707217963787
0.01634987149258332	-0.04034735635358536	-0.02187567198889941	-0.05007436888641615
-0.04316005469781561	-0.07928166602865953	-0.008981786859577767	-0.110756935325636
-0.04555891047878087	-0.06626000484690818	-0.02031426646040674	-0.05613748690651196
-0.03069723951358439	-0.05135219085111878	0.04085824771017015	0.005057728279299435
-0.0002137259205319729	-0.03391466505851111	-0.00901260894100479	0.003130180615909217
0.01245736522865965	-0.01203141260341384	0.004599529379987555	-0.0004418322864291309
0.001711066006697807	0.006782173774592998	0.02212155646084189	-0.006541580145292995
-0.006961770019855094	0.01775780318070169	-0.01226512217564361	-0.00583495063974128
-0.00756312836368507	0.04127199978472874	-0.008317983513608952	0.01043492839065175
0.001249775280912941	0.06293859993863317	-0.1180800148244288	0.009386836087711922
0.005094756608804812	0.04462426130705673	0.07200778701115837	0.144209923144716
0.003175370056693807	0.01713147278430564	0.1582248763617314	0.1514372664161256
-0.02713332949976995	-0.03150519927415036	0.04636491335295048	0.06005812253966471
-0.01815520763147642	-0.04189682702623275	-0.03518669479602519	-0.08301746380285954
-0.006688033764941392	-0.04764546520048129	-0.0244804567599055	-0.1086176986470585
0.01749395780928178	-0.06689192383939614	0.02615804596220009	0.01533294814841476
0.04336605000872739	-0.05611075323309034	0.04385452291356043	0.2129754988404465
0.04337171866679464	-0.04607417642364395	0.03156717315246241	0.161366793012309
0.03512121808618587	-0.003326909641673091	0.01339510054815423	-0.001610241477268889
0.01563218816001792	0.04219207819074569	-0.02943554867078191	-0.2420206641304625
-0.007271526747322996	0.06634340761130358	-0.05625973501059436	-0.249495990106913
-0.003780006459578149	0.0587355312418616	-0.06305944135248015	-0.05336817092417862
-0.05144884913680098	0.03947706099189446	-0.1144673936909926	0.06344544181976559
-0.06229669108285874	0.01060239326039663	-0.1299526262253825	-0.09680900317702112
-0.0240097749708472	0.0160304507081656	-0.1302544310303361	-0.1112501795043847
0.007391867783931681	0.03502320925966703	-0.09323298521338445	0.007363381537281485
-0.04103195391796081	0.02756074273146436	-0.003443201928958228	0.08644638004783607
-0.04167570439556493	0.02489803704473723	0.1280561171262948	0.115433346524702
0.01207123053538872	0.01534672438213986	0.08331394992660117	0.03085044802459374
0.01768278487350953	0.006218264689784566	0.04931938814383695	-0.1024507327677857
-0.00794793088164952	0.006765825105450044	0.02292502671152077	-0.1363536640463729
-0.02502521544612329	0.002360206696105033	-0.01881818570446482	-0.1324436548255467
-0.02053236506216063	-0.001842661700400472	-0.00652547910662579	-0.01545774465690973
0.00226813626580536	-0.006937443332540426	0.07269598444625923	0.07036865645528247
0.006795699122162256	-0.02175659716716211	-0.008696852184135757	0.05867228330220066
0.02724109916713155	-0.02173392675749489	-0.02547386380693728	0.06845449058124686
0.0476505017077672	-0.04216428146104094	-0.040864631615023	0.03131942986957138
0.02529417656090138	-0.06492997058738667	-0.05118941608918472	0.00699802979528944
0.009771546094679916	-0.07102681821978554	0.009071700239283791	-0.07038399744867013
0.01824663586248632	-0.009163979625395722	-0.103990712014487	-0.04886759549548415
-0.00663543339781018	-0.02443850406806073	-0.1333274276820543	0.05737105509605458
0.007317686765801854	-0.0006581220038346638	-0.08094454015767141	0.05872537048848643
0.01651757585611595	0.01210860250685112	-0.00211483941604051	0.03899608926376019
0.006126322473567484	0.02449387656856566	0.217397056495725	0.2460961870783979
0.01153005787384849	-0.0001259883105766511	0.3775824471986788	0.2409948676165181
0.01676450538581119	0.01106380607373233	0.0769124443803442	0.1064529910944849
0.04649554428776727	0.04624395689179221	0.04971343966863014	-0.1055511726834478
0.03796729817685254	0.07701922707660233	0.02694105804570843	-0.1305487768518655
-0.03095904328782249	0.05672245463676272	0.005520242919359522	-0.06953948355025512
-0.0467341603192697	0.02044262865044081	0.05130835018132966	-0.04282710191269554
0.01057272185927475	0.01039846656780784	-0.006121350951420595	-0.03388604892834748
0.02728498699806773	0.0002091753021615473	-0.02925475669804609	-0.03785871221646366
0.02212425086964731	0.01236162694063878	-0.0154509985874162	-0.02647009435235919
0.01964321893083631	0.01748131994122212	0.02377630409052376	-0.01032875971597426
0.004259878434840618	0.01572391691379931	0.05149208855882258	-0.01146310473488315
0.00857190289629468	-0.01608822339487824	0.03499414590932551	0.0299044208984162
0.03255459477578932	-0.006783479107811769	0.05899254991844179	0.03725635045379865
0.00225393501009568	-0.002535450845912042	0.06876760290739799	0.0439825818292515
-0.01189188654096596	-0.008486378023023398	-0.02622143787130388	0.06205378955673726
0.01943632691565996	-0.03421243203135041	-0.1447496271813488	0.04929059583223994
0.02466380537432212	-0.09013352310626757	-0.1213125365585807	-0.06262988422480195
-0.000809716771698318	-0.09279500531275155	-0.1131562033137939	-0.09823086144696616
-0.02080354354949997	-0.08914946598754796	-0.1190186797738662	-0.1111927868211732
0.01815095390400612	-0.04481333713679552	-0.05728576353758695	-0.07891933774018646
0.02568800361593915	0.005339259778176307	0.1157081899895187	0.01940869277922551
0.02408788523513601	0.03424632933251868	0.0336654699267189	0.07330641924302055
-0.02568785091049172	0.07802809638964882	0.005355615257261544	0.07209179181955482
-0.08725309609942754	0.1368931851285423	-0.004448491972807091	0.02236537420806791
-0.06642161648049731	0.1237685569769161	-0.002257843697248333	-0.0517012337176144
-0.05390226868699125	0.07529721048059174	-0.02565903572326567	-0.05332946543161524
-0.06193949600798237	0.007509043012442486	0.002068382931919048	0.03509712836495858
-0.03756876386976783	-0.02381343619586652	0.07260952370244653	0.08824037596587191
-0.02435873981930128	-0.04789488567201598	0.07362399935482444	0.08557252342245444
-0.02766690555368951	-0.04190560324240134	0.0337214023315485	0.07214957341691446
-0.01652393108978829	-0.02226973100567273	0.03800023013491365	0.0575737433092649
0.006429338302971082	-0.002724924496498788	0.0007454607185752176	-0.05651849026380595
0.02669018148513421	0.009603453963959072	-0.03502224157413503	-0.1148494006821474
0.04615173306622414	0.0280969146438521	-0.01569811461233952	-0.05485017787208162
0.05946608742443128	0.03420206641121956	-0.04319696707232355	-0.03548826055695585
0.03130914910759222	0.01549505750637756	-0.008659525101093751	-0.00450266913740964
0.03821904863516149	0.007514205337717478	-0.04312682252706373	0.01305793873500894
0.0382338510767041	-0.01289692856597203	-0.08459713366049111	0.03737136559027195
0.04050229887164752	-0.03849485962060676	-0.07430949356759076	0.06459477219890224
0.02413699608357889	-0.06048485928725211	-0.08776980851886601	0.03816631291037783
-0.02108821817340198	-0.04466245636675335	-0.04603681950474397	-0.003439893626499403
-0.0319477507291357	-0.01667155021450187	0.01101386308797608	-0.07753536709348263
-0.01034325655039848	-0.01530558002779084	0.05459456456500464	-0.06574086123045446
0.01224490813614061	-0.01543975861585596	0.01067900276852927	0.05799948411194508
0.0105306569016289	-0.01300890130315245	0.08897657312251651	0.2078444636296254
0.008152742644728619	-0.01914146753105673	-0.01296545623516928	0.138225082584194
-0.01689144893674467	-0.004903865706388812	-0.04792415791601878	-0.01415288573122856
-0.04434005080346262	0.01631654240271807	-0.05281924013312744	-0.1558322028537447
-0.04293959540726671	0.02214538920202445	-0.02574735711005719	-0.2580058664240999
-0.01420493261460215	0.006011750487423004	-0.05685693497554504	-0.2086235722411161
-0.02728734303106189	-0.003934644120183182	0.08047987307115446	0.01371986972154545
-0.04976997596496614	-0.01078608868518616	0.1151662472800744	0.09664265920825586
-0.01266847804605583	0.006402263807063198	-0.009806258337846388	0.05529406509760727
-0.009588937646375365	0.02056345535591652	-0.04197808754429617	-0.07613582019124056
0.01508769399432293	0.003307551327119829	0.04400890188379639	-0.1111510858322528
0.04388834668757025	0.000736714280218498	0.03664056393222879	-0.005508518083965931
0.05055507401912011	0.01293247819246923	0.03303158545350456	0.06613114583832708
0.0493579735334608	0.003301430996997244	0.04604826381891097	0.02899568922013281
0.02095258569190672	0.02238141773463789	0.00632198300206149	-0.04705826251266278
-0.03052894167625132	0.02512781229149312	0.01494916775463522	-0.1046037867744849
0.007841201759881782	0.02843071202669884	0.01679865620354113	-0.07678280171073718
0.009526094846716912	0.01137180850140437	0.006283948432133156	-0.00835192143083577
-0.001630880176027536	0.01541397029245379	0.02512492869599219	0.01450776525628495
-0.0459459561405912	-0.006917464775183047	0.0192369685479314	0.06918997458822217
-0.03499911985478348	-0.0148441356609248	-0.04024212057026216	0.04379000129533429
0.01426238374380173	-0.0183909811907021	-0.08934448797282592	0.03111067413924974
-0.02136062076843371	-0.04445667153010015	-0.07066953631540943	-0.0009411816775431722
-0.04954421066439374	-0.05921040843571318	0.03075780913393491	-0.02821952483597671
-0.02895517938581896	-0.03940706471260405	-0.06701513236748691	-0.01958704074044456
-0.02204100677769999	-0.02704563037582749	-0.06584237290876332	0.006784634692857394
0.0009838735996873793	-0.0138108967877174	0.01734551411222552	0.006288171290611257
-0.005506552064497195	-0.01435664405446578	-0.01088727724076603	0.00196170014067524
-0.00805296004416697	-0.03477921414540291	-0.06227763482354979	0.0444085519440096
0.00613366764125189	-0.06609388401207338	-0.05698416842605715	0.01226009727355088
0.01444837690442353	-0.0625006170465458	0.04429870699207472	0.006031132097652986
0.02083895429160703	-0.06258892478136163	0.2454130798806649	0.03648874239865217
0.01896651845196998	-0.03572100235932853	0.1274112398530434	0.03878467349497889
0.006942154981208433	0.00362996238717882	-0.01552767078360972	0.03948469311022973
0.0151077517917522	0.032040092658168	0.001102279361733184	0.05678310311062444
0.0474056063338028	0.07360720119478581	0.0365019892433489	0.05184522283237351
0.06041007548755548	0.1136718875179627	-0.01708358290619422	0.1016515727701659
0.02183952094333988	0.09575508165369703	-0.05206059994916716	0.1228317457927073
-0.01007049204621996	0.09414516708045399	-0.05494155430408887	0.09114358727592055
-0.01603468630022261	0.04956059229946135	-0.03054666420408437	0.05470961587658434
0.006207709823566545	-0.009855645499378961	0.02294789054550334	0.02879562651397394
-0.01227434302154717	-0.01094573858802563	0.01791224938405653	0.0234483220581816
-0.0107170381240178	0.01884165562161287	-0.02643418727111912	-0.06056527621568761
0.0150465554494416	0.02670529549334705	-0.02987471698529412	-0.09919595635104399
-0.0006042357891486255	0.03192122317069503	-0.0548258744089178	-0.08410863434893191
0.01167450726489743	0.02548157880288384	-0.002662836614565497	-0.1327556264554705
0.03435329535335802	0.01932295645875534	-0.009902616412802297	-0.04450217544196058
0.0008403782607368529	0.01542005306939329	0.004432639065997868	-0.03123118564000608
0.02889271162242621	0.008334548752767434	0.06103544480733572	-0.06864443158530605
0.04529790549053376	-0.0002797392425546714	0.08127106422123151	-0.01814326267382602
-0.004950353869392145	-0.02637704533601799	-0.002193918146043128	0.02039349936963401
0.0008390653882782862	-0.03379491704054773	-0.0455617057991089	0.06039628074135465
0.01081404368587703	-0.01734389279619995	-0.01142808453207751	0.03548159518108378
-0.06296192829035303	-0.01679338051562216	0.01148355947627719	0.02269700180138699
-0.07773248023519182	-0.0235167006251292	0.03457022292409534	-0.001670834310418085
-0.03810387782420894	-0.01440273356441888	-0.004920397513238294	-0.002085911827362618
0.0002897255648848646	-0.008441556230017317	-0.03634623581414248	0.06176069370550138
0.0001621282402703997	-0.01550565777540217	-0.03598882473229292	0.07986918744680974
-0.0003966593475908606	-0.0259165476213692	0.005599488994753658	0.159552524333242
-0.007452147441288623	-0.03676169801050962	0.002789495598021584	0.1784118204702441
0.002054528989512296	-0.02403845884735287	0.0374121607513701	0.1139996983712523
-0.00635258682796861	-0.011628448610031	0.00724685848083493	-0.02408994694566133
-0.02729636116111836	-0.02812788662813137	0.02762618081159675	-0.2011699583997482
-0.01116279834345081	-0.01294738172092463	-0.06281253672846317	-0.2967565311607416
-0.005954329899029808	0.01241481214877215	-0.06683262176411578	-0.2057945986667132
0.005554629959284482	0.01118170654127698	-0.08344029010810487	-0.1038107826171081
0.01754868537588209	0.0257376941584117	-0.1270797919617346	-0.06359385708791147
0.00786948845954407	0.008349461330832449	-0.1007074212867903	-0.07633182775832623
0.004478401375235315	0.02045808070692179	0.1677390953013266	-0.03188979652972205
0.01294440172204359	0.02630508535344405	0.2225282917479863	0.02450859126211675
0.02363426560933909	0.02054361555951944	0.03904945470936159	0.006675858717002756
0.02535040954879121	0.01324491713676539	0.04909979571059404	0.02990358830891708
0.01801627836138127	0.01900100062868255	0.04260953235269717	0.06596125660327665
0.001541702456988068	0.008882700880511265	0.05026969795733122	0.1294148993414827
-0.01347379160615614	-0.03177175145677066	0.01049526435910234	0.09953811639815782
-0.002926270443409386	-0.01664421145728501	-0.02815002301835615	-0.007013336623458443
0.001417706954617663	0.001812556775294604	0.01574739369626635	-0.07656764218476068
0.005870778872522285	0.01826332075147084	0.02463849297844246	-0.07599204542108808
-0.01347731852829545	0.03296784212789827	-0.0370583411113407	-0.01838482222232142
-0.04594627614463559	-0.01093533347963596	-0.07451825341442907	0.01106297974515746
-0.03604995919459932	-0.002585342571288858	-0.09575020684174576	-0.07415223788271307
-0.009833468836775881	-0.01080348591180665	-0.02493941360875328	-0.04176317841908066
0.02109232241230467	0.02135301573119969	-0.008001860851648402	0.0004915799278393065
0.02022395372654237	0.02240959755763744	-0.0363783918672923	0.0287399890346543
0.001186023066934781	0.01331553741498316	0.02043015997387631	0.04632479149597715
0.009442803216624301	0.01053653745816272	0.001617458234806782	0.01759368424457443
0.0138090920520776	0.02778913980992301	-0.02230880755090936	0.01037203261649311
-0.007653959509327977	0.03186157529255438	-0.06245324154099309	0.008737332659648317
-0.02261293761955241	-0.003084242316234192	-0.1146406931895549	0.008351236350544054
0.01231478408165819	-0.0386071850623784	-0.1122515299178275	0.03954741556736181
0.03398831614086433	-0.02896993531599706	0.04726700381092161	0.006078532066996379
0.03658020730822652	-0.02635153589372236	0.002268932547446228	0.0325316647812024
0.03993898627754015	-0.04571272804322537	0.04548874387102849	0.04917364337709828
0.04544397883636087	-0.04101351736000431	0.1064621244840914	0.08354127947914981
0.061196151032011	-0.04503922174852153	0.1203956127787559	0.1324304196666579
-0.02074414216663783	-0.02475016679267622	0.08260468521139842	0.1737965439885761
-0.1233848721151582	-0.01713665192901855	0.10489582078401	0.1172423809090518
-0.05471778259852855	-0.04475793741419824	0.05884727362841981	-0.02290910377247841
-0.004104846900037313	-0.03881993342887378	-0.0171256313926955	-0.1061352424086113
-0.003406688801732444	-0.03722980467483891	-0.1172684873979404	-0.1284088360969058
-0.008078647207053084	-0.01043644789901276	-0.1037820532533571	-0.07031995359367603
-0.007971348574071424	0.01177183260482204	-0.1147444270686147	-0.03041773368322469
0.02323089316888601	0.05100658374638473	-0.05164389744591202	-0.04503879316934598
0.001317801951093658	0.04141737663211478	0.05974762318195108	-0.03837157620643626
-0.01442784681960459	0.0492091420080744	0.1615590010815546	0.01911515283534865
-0.004187329096259023	0.04977803514251676	0.09292299710887029	0.1101753744292795
0.01568926329584872	0.0322637157843837	0.104679969349124	0.135786792743074
0.02329864183096749	0.03430795856820369	-0.0724587980849227	-0.07150641749058932
-0.01511321549360751	-0.0191428292629489	-0.1056350245340191	-0.1302257435480061
0.02262969976426777	-0.03675852665524282	-0.06255894296261628	-0.1221310738743445
0.0312753284121254	-0.03329047664285248	0.01216608853635342	-0.04416956357524551
0.04038241486364089	-0.01802320720982473	0.09018819447462796	0.02311905181622776
0.03189364576632394	0.006158608694058367	0.1760376851610084	-0.02087338804206696
-0.03718387049293127	0.004656841022585259	0.07944238901667455	-0.04795492703181009
0.01044218937587097	0.0511732040645561	0.0173341020494799	0.0123061581390448
-0.00520482067053797	0.01367561459995718	-0.005079411620792906	0.01670233160751088
-0.02224931503180961	0.01273107732594925	-0.04760248956287235	0.0269218660196273
-0.04219691547240316	0.01969657596978091	-0.08240429881239286	0.1165035578385734
-0.0805774655880024	-0.02901653174168382	-0.09330967308130637	0.131353101798979
-0.06372989808057618	-0.03591705525787758	-0.05367710522668601	0.04311973859699581
-0.01401385012507439	-0.01448251174282413	-0.06049076395293111	-0.1335623949366
0.003367320510386281	0.0006770721258879916	-0.04850125160117312	-0.09457640439596741
0.01304990102856146	0.01305949137829515	-0.02115243726891177	0.01601389252196084
-0.004466146550759771	-0.00871803666152368	0.02464957871774866	0.1658465122830595
-0.01846649597857127	0.004561853978692452	-0.04387560667530161	0.01115855656774284
0.007675975666538841	0.01676547805877979	0.02069799614918128	-0.04004110351265311
0.02244105502867497	0.03212991070546767	0.04146590432471919	-0.1499554836103816
0.04337291615375605	0.02583576724370108	0.001093079109264103	-0.2004574740276556
0.05226088768827972	0.02677770151612198	-0.009614051170937103	-0.03364164719077931
0.06191539120278678	0.03198701142499369	-0.02254051882228014	0.007754021482679361
0.04137459068354186	0.01726359054833033	-0.06935353330955009	0.02190570477345758
0.005479014537365536	0.01817378418543242	-0.1100342615249702	0.01073894902556524
-0.03284467519631677	0.008644041176362952	-0.07759903286577198	0.01182682662507228
-0.02865661488269404	-0.003099483983270725	-0.1441806156769773	-0.02023467943600328
-0.03491513843878038	-0.0153204750399825	-0.160971905323333	-0.01147123452197251
-0.033112595070569	-0.006065381957475566	-0.05778689302833664	-0.03071532364528343
-0.06086349346996231	-0.02461368903106727	-0.04746489467465171	-0.005137477731488356
-0.009232089507284734	-0.009400414213473322	0.1076469246231186	0.09451644086092555
0.04021088821574318	0.004982798209533723	0.2621369677292584	0.175117737637651
0.04946683057068801	0.01339693419659359	0.1523838102851372	0.05321033626179879
0.02882268276561347	0.002588110905988578	0.119425159487181	-0.03823303888039519
0.01642506130752556	-0.01962573388406364	0.0006624765576937004	-0.1148586993367917
0.01524822041527872	-0.01462139616922585	0.1166860076278727	-0.1031851909807831
0.02771836317648212	-0.003824290644526263	0.08695002933556513	-0.01659820468753637
0.01239364266263768	-0.005164422671024966	0.01093827538480615	-0.004779133054402596
-0.03038397986224514	-0.01389755522738079	0.03761441606717632	-0.05352976638308267
-0.04758595269967603	-0.01358822310175486	0.03093998665245196	0.02472064118909726
-0.008516930006455498	-0.01387098643808111	0.0202188899010581	0.08777018484697817
-0.0001124078570011977	-0.02317346029152067	0.03305657753030753	0.08763979503727548
0.004207148273118234	-0.04371172297151113	0.01913617813049797	0.0288095648321324
0.007417172375695217	-0.04923804075725669	-0.03444290027999848	0.004599243623581733
0.01419009509371716	-0.04249414335184518	-0.1046703782463004	-0.01648236011499413
0.006097054483699745	-0.03047529384959842	-0.09986703634988103	0.009628888169771879
0.02306385429092635	-0.01695027243282215	-0.0134685474263393	0.03797816938517962
0.05619544889900978	0.01414043208526297	-0.02928689626539387	0.02563065257749467
0.0544748702833991	0.03450952445664808	-0.03880928224508437	0.01242466256049098
0.02949767112911805	0.05643807549719224	0.01287457260893893	-0.0048910098153644
-0.02968152085942243	0.04024241070992651	0.1854406069618859	-0.02269459226134616
-0.00440289117859615	-0.02379953197302503	0.05142052209902041	-0.01491547696737987
0.008664328674786127	-0.04623041451165402	-0.03389920822314275	0.009581876143653256
-0.0337362935532428	-0.04455678431727243	-0.08335912746958632	0.06907582110967574
-0.0496652410107352	-0.01112270519778316	-0.0540410132583846	0.07864471355568577
-0.04131765271533266	0.02896512738244	0.01108959529033225	0.05493339916001355
-0.02304582319691156	0.0446770250598798	-0.03598051800538521	0.0104855409687093
-0.03888859379442342	0.06577060360910013	-0.05794890148662837	-0.01578968198250564
-0.04884389658238365	0.04700877190630274	-0.06475691221054096	-0.03778685071672353
-0.008130218643725805	0.007191119193697156	-0.1057390714909511	-0.02553212690383063
-0.001133755090933309	-0.008441291411722883	-0.01846798107868342	0.03285938851862373
-0.03465702305812266	-0.0219759500130647	0.1100332601957863	0.07127446135443748
-0.01108288673860109	-0.01214146421323535	0.1236858156856483	0.05163259238706667
-0.01838708545410527	-0.006812165367205099	0.1663309784936422	0.01328468885850824
-0.02132832634181609	-0.009979852242706477	0.01912671874289269	-0.01554345280556411
-0.02640151287590163	0.001951032066500747	-0.05996000438603027	0.05880669031977803
-0.02298102245984777	0.02209136147420598	0.02976450233930861	0.02576615435613868
-0.01053767025800945	0.01816585000589775	-0.003206356499436794	-0.07946373829625582
0.006465605633612917	0.03719728788046769	-0.03720687019276184	-0.1420829859609701
0.002484069063203443	0.03975918475312321	0.0008944714246660589	-0.1411069342568052
0.03476562239750752	0.03234132323486902	0.01618588425426978	-0.09087903366764914
0.05913354910626038	0.02590475631522365	0.03176820732434041	-0.04759243764048546
0.05408478616700983	-0.02238925234183609	-0.05255614913373511	-0.002320286777517913
0.03596210429474559	-0.03122643132546682	-0.05412956354446955	0.03592161375903379
0.03761406610117127	-0.03157777109459479	-0.03187702142798005	0.02826001419892681
0.03216541008558907	-0.02646264347814179	-0.07108248213036575	0.0209802632701884
0.001688879107883585	-0.00621511942158736	-0.03774226782733547	0.0720825545096876
-0.03670629068713038	-0.004865288343923038	0.007642072972972657	0.1631026572016268
-0.03524803888130513	-0.004649382119807062	0.01162338550999354	0.131377399707961
-0.0113675587460704	-0.005719365465101905	0.03748792382683119	0.05907191527676758
0.0128706270222685	0.003315570844318648	0.07931346902678414	-0.04281937484034363
0.02583109538936113	0.008078911137637123	-0.02330071753164652	-0.08685723459647547
0.02315070952199641	-0.00639192975684523	-0.06510696142606462	0.08310719910217415
0.007260994516353677	-0.02875000182208194	-0.07635723101475821	0.127794906178317
-0.001795596593985779	-0.03331763535070635	-0.06426629374594989	0.04243299845185888
-0.02683812256568738	-0.01150596317053857	0.01758600271304398	-0.1889348484736675
-0.01138644638088381	-0.005949389943504174	0.08852368759962145	-0.3483654660614601
0.02362615208118086	-0.02701862692875637	-0.01649439530824737	-0.2278272510488732
0.03721748669903394	-0.05478053151316196	0.06660408598263085	-0.134440550457499
0.04081769732101341	-0.05250301118814127	0.01603967885586226	-0.04014031987441832
0.02151967735742129	-0.05599670031221487	-0.02903076526012873	-0.04299108177454719
0.03308733198068193	-0.0306569952938244	-0.02510409954239627	-0.04179847742395628
0.03530048240093773	-0.004935981455998373	-0.0152942540889517	-0.02110226172055571
0.007409560866598271	0.02877579255172735	-0.04214295703100497	-0.0251995747992372
-0.01658822317470944	0.04766671180363208	-0.01966954651295077	-0.02388556879437235
-0.04790123521087253	0.03939055269073152	0.07817690716615586	0.05186469382286599
-0.1010031221469219	0.04355153508616873	0.09865562233764549	0.08727566798335692
-0.04328143759651311	0.06304909601366823	0.03592045112401071	0.1077334454305372
-0.02239728073535377	0.05421999135704292	-0.02221518939391601	0.1342384768155542
-0.006819817927094399	0.05685201195202106	-0.07737476639383255	0.124224274567536
0.01249827596611626	0.02467392203498251	-0.07933160014969758	0.01129195763036621
0.008578434304417367	-0.04177655284758153	-0.1011427756088507	-0.1209642079561281
-0.004921262276651682	-0.03756423751874651	-0.1532767442478985	-0.1453731417163455
-0.004903458417109066	-0.01261793033277283	-0.1308262912021562	-0.0765371315616412
0.002711318479737729	0.006521671132563188	-0.04344891134722747	-0.009457841679105624
0.01576011930104975	0.03010689551196778	-0.01305480483318301	0.04799095802807903
0.01763575085401127	0.04305887343719951	0.1044182068255961	0.06802549911033201
0.01762675335051153	-0.008572684680178001	0.2081970351012279	0.05688353250717816
0.0003189587711464884	-0.07106033116915476	0.114225029506457	-0.01131730748827039
0.005570830984982434	-0.04453603474563494	0.03592863023647842	0.06360427986934686
0.02052313580756865	-0.0216171126329563	-0.003908880368417515	0.06482719693563982
0.0451854015182154	-0.002728990803999491	-0.04222546308801522	0.03401205218004694
0.02855247393454087	0.02038237023794485	-0.02585330636616311	-0.007185092082673191
-0.0319100909975002	0.03786558448588283	0.03487483278052005	-0.02753188982870473
-0.02228640106731083	0.05280985689371212	0.02843740921570099	-0.004444487761740902
-0.01314914719039591	0.05432850357520329	0.03178595801842191	0.02086653634288092
-0.03623051898154479	0.04319972706372217	0.1357446598115775	0.04850691230136597
-0.04697908521504893	0.04893196463276127	0.1522468304558588	0.07963351739637815
0.008380330450642006	0.04230817750203938	0.01020923636555955	0.02677259795488282
0.01598831452676406	-0.0002097464005665481	-0.02066265542823584	-0.006805282194422855
0.01032546733496986	-0.0153277077488854	-0.06074541569975502	0.001044963349064577
0.001030239674462783	-0.01753464095879856	-0.1162623220469742	0.05023494785989752
-0.005956298393456083	-0.008270581823098729	-0.09762403410489143	0.2500850802221493
-0.007061048116397694	0.01766712216699967	-0.07777730868726944	0.3130255954626309
-0.01983956427118943	0.0140910749369048	0.07743910023767318	0.1204093267690346
-0.02329378742730412	-0.01197013327469088	0.1049697017993235	-0.2128597974443439
-0.01614028013935812	-0.002030171739955997	0.1949980962921712	-0.2105369437958343
0.0030430901498153	0.005634049561341501	0.01450564687631751	-0.0918847988335456
0.02546740369151116	0.00201268825776626	-0.05737566951662435	-0.02097289513963159
0.02549349612531718	0.003141373797873919	-0.02808311659783391	-0.003693365717740552
0.0585811934214464	-0.01536104917725239	-0.02391006697765214	-0.1145104589467522
0.06541706767765679	-0.03769515837660886	0.01469497873615758	-0.1534876868774823
0.05656109217124631	-0.04529095765903245	0.04367726356550127	-0.07573467982599409
0.05722854556095875	-0.05760650938606678	-0.03518357539966126	-0.0132234078806534
0.02536376858787771	-0.0315645903366467	0.06843944614559209	0.02161074646367358
0.003318852254757729	-0.02300021243484869	0.05769744985750126	0.1155592569079231
-0.09859793790797149	-0.02767604760406679	-0.02762715864233229	0.110638226534372
-0.1019840919654572	-0.02693267425670604	-0.03830777299404997	0.0605033209909916
-0.04151421343488544	-0.01479176296802956	-0.05456722305738632	-0.01170155935487117
-0.07277483022224816	-0.002340776480606371	-0.01431304020744011	-0.04505043951691862
-0.07488102809192708	0.02730490369580891	-0.03138949331216798	-0.05046714719831127
-0.05144057564110163	0.02247242975408753	-0.03852402136574615	-0.02420351447586316
-0.02308162028318164	0.005178565194146874	-0.1104887428551677	-0.04672216924565945
0.01547660721895482	0.008644670044789127	-0.07762942630787296	-0.06271295669431719
0.02504607624969857	-0.008354323531808091	-0.05370834916662855	-0.008496816237308106
0.04334617307997681	-0.004031738630146085	0.02465835323924318	0.05291951484574741
0.04306726696224653	-0.02157802880479476	0.06135671615656416	0.03443279421814573
0.008183797301788608	-0.02101000835356845	-0.02409019285008714	0.01632356681967045
-0.001826809349290593	-0.01371985489092169	-0.003206831506064332	-0.01336345489560577
0.007201100407346553	-0.001454558119086899	0.05961407019945744	-0.02569770661310444
0.009801782973269474	0.0142710336501823	0.008654904336655143	-0.02570110741573058
0.01399963867352657	0.01628715792617037	3.647615076220129e-05	-0.02359845851599318
0.01409129776436176	0.02278159425569905	-0.006407054255359841	0.03541779342847058
0.02554420988416764	0.01856752967971255	-0.007486598663579254	0.07608783840929542
0.008861370065882057	0.003350694379217593	-0.04201131264584472	0.07077249660187331
-0.03490681947663707	-0.005305257044587885	-0.02174005511436566	0.02909935717067194
-0.009790899448673883	0.003150273143646675	0.02189879015483094	-0.02009630789529794
-0.01442727595458674	0.01090236782963089	0.03438899498458049	-0.01663316725105515
0.005461576605656965	-0.007955059971893788	-0.001132175626106478	-0.03240461285692098
0.01559414038796358	-0.02032981987947801	0.08085692783283435	-0.01547015145244863
0.01701609273948958	-0.02981200585325931	0.02277716388827248	-0.01000122311991742
-0.01497607212716666	-0.01785934939784395	-0.01587111386379859	-0.005875831259348158
-0.02452042398727896	-0.005105475594417859	-0.04801489920263604	0.02330853879126654
-0.02209756205221833	0.004515745500069016	-0.1239198079579664	-0.01122737984571313
-0.03453398753027635	0.01795115235930765	-0.120221545196063	-0.04720920537969528
0.007175313637065185	0.04766191238948646	-0.1043410060108103	-0.02709462313705653
0.02934759182490067	0.0343276631092989	-0.05280311903881686	-0.04490236131361684
0.04017065181583426	0.01300210041641263	0.1983402862058643	-0.03646760124356817
0.03951658268180697	-0.05904710037959094	0.2458423964750153	0.07191519827384582
0.03117383312560493	-0.08243658351984304	0.05280092943788127	0.1163648471339394
0.04508599341028176	-0.07569324580000489	0.0147522071985758	0.04153932170861296
0.0167807158793557	-0.04250394465632625	-0.008736728468251392	-0.03858974489786351
0.004005844086226733	-0.02464236932669077	-0.0857130475141734	-0.1428580650755039
-0.01111929282043916	-0.006639243546139615	-0.0893297798618863	-0.1573907036143476
-0.03298463812430333	0.0142333959335595	-0.1114646051202461	-0.09609680501914465
-0.02509089862260589	0.0237060213508712	-0.08383976493962572	-0.05027460438111724
-0.01752261953800111	0.06036201615908062	-0.06287024644592018	-0.0262778339605083
0.002483340136676398	0.08395392383934543	0.032127978207431	0.0270036681734689
0.006460837291114217	0.05650917792744099	0.05234489714516772	0.129856626986383
0.011659585152879	0.01582369753720923	0.08352600269453654	0.1538549079992136
0.01425553292282084	-0.04694592618320361	0.2097356878555131	0.08894470482284605
0.002562838804721143	-0.06964702893596104	0.1126500191826955	0.04127534513264576
-0.01726572163685934	-0.03031388890779513	0.01780660843314419	-0.04556510528293677
-0.01171537773168103	0.01969845156590825	0.02442074375811251	-0.05336923976386054
-0.004380743812880159	0.03159116212514941	-0.0461210157393417	-0.2007302293285468
0.01352744712034872	0.04044053875931076	0.07020906830392215	-0.04741350313777789
0.01201225303467116	0.05189772286603185	-0.01022766550619671	0.02175901936376327
0.01290322021646317	0.07417749081556613	-0.01432507541160445	0.07977724844987331
-0.02641373308492712	0.06985321596555065	0.03884066309681311	0.08809987524720332
-0.03456529571613075	0.04586072413882643	-0.005576857698511089	0.0464362431840241
-0.02638043369494026	0.01999021010811711	-0.06629800585501032	-0.02170887867832245
0.0252393088523548	0.01565774471067646	-0.0684261472886315	-0.03112506901938943
0.04898197138300585	-0.001015086296723077	-0.1083790977832325	-0.02723118482326419
0.04115829930817615	-0.01090376180512978	-0.1093623207465722	0.00218883051626417
0.0356815208534105	0.003948165819069776	-0.08467788837035542	0.003475941249214051
0.02300430048391031	-0.004635718077643294	0.04400466517738166	0.01258223873282484
0.004384510592245081	-0.02350177779698191	-0.0623610579934531	0.01778766670343625
0.002990654075023554	-0.02295379635247958	-0.1722002538951477	-0.001601988891320064
-0.02202839581578128	-0.01091065781339453	-0.1533063419569574	-0.00967868381031132
-0.01148758522599954	-0.005913922726152466	0.01313754340846729	0.1165158599708065
-0.02950058098518693	-0.02403203454589868	0.03409963922451709	0.1521738262055955
-0.01022000063788409	-0.0249623996060998	0.1881051882360502	0.104341650798854
-0.01071974214572852	-0.02429018238901762	0.2509778199027435	-0.01743245406828558
-0.01316674992534482	-0.01165931783922222	0.09841214067587403	-0.1083565930441458
-0.000766027862138559	0.008231019495478073	0.08704850093427847	-0.05290315530370965
-0.004797772069055108	0.007012235913832105	0.05515448194344248	-0.03675116561226973
-0.02002432813001549	-0.02235488636983836	0.007753739496204411	0.05227975998104367
-0.01502472836817226	-0.05838318618200045	-0.0398048758841494	0.04431160954967026
0.01242001166058631	-0.04078061987472743	-0.03929255125746419	-0.02023294627286254
0.02274215480912841	-0.03481424691560527	-0.06668386512560469	-0.0657598101221431
-0.0001677865495901352	-0.01537853301792767	-0.06038145811596674	-0.06139981908795739
0.02138582218479135	0.003540183893824678	-0.06052469388730288	0.1152300236358265
0.02554791781529953	0.007553645720405133	-0.008671010503479222	0.1551011631232714
0.03293503567541431	0.02645730225722617	0.09254565748645446	0.1451452086865045
0.02015671121913192	0.03020446994632967	-0.06770059844924811	0.01782729097012496
-0.005444243677551272	0.02039044505826217	-0.07167515133591414	-0.1815817924775374
0.01980148826748634	0.03197534713066576	-0.06097766971559446	-0.1880433514499345
0.02275855936999005	0.01225633165952911	0.055071145221785	-0.1009310451983729
0.02018562961550983	0.008768636742111299	0.2179160325962286	0.005362209615936009
-0.02427187276229381	-0.02014381654367715	0.1234790389366118	-0.02615988938239427
-0.06682389049512541	-0.01525224230329233	0.002848213184254103	-0.05414369729628107
-0.05587389060215498	-0.002449195863892425	-0.06268320070357435	-0.08956347418356507
-0.04394377582013954	0.005276045439687144	-0.019116132053587	-0.0686124267673891
-0.08999579362535963	-0.005145653272327783	-0.03579182035272122	-0.02383905078850405
-0.07185467859572905	-0.0008742112899917094	-0.05135325318199274	0.01588653542468439
-0.02479429226728082	-0.005198598665279154	0.0378169226754235	0.003304033467690592
-0.0100138097803264	-0.01153789034948537	0.04200354853997245	0.04564712681064102
0.002806340721600679	-0.02027310317240439	0.06987659120859784	0.05928258075538852
0.0506712898737998	-0.01439324141989509	0.006075447315392291	0.03819180481427147
0.004418610318758081	-0.03142038391110279	-0.07535306374477584	-0.03799546547825022
-0.02232026554156332	-0.03147379958978964	-0.09906917355664091	0.004364529906076853
0.01790318379064083	-0.03289813868681972	-0.09828613539272427	0.02681675152107428
0.01653309731168235	-0.08286127791353282	-0.08319071295669406	0.04685156356688234
0.03591986586039113	-0.07487475556616287	-0.0496734999595464	0.01700618699740008
0.004344434630610706	-0.02833731770754903	0.09569769889302869	-0.05116024129767672
-0.0315564590674442	0.02086584343002864	0.07338164278180073	-0.04974858595383945
-0.04017726936119474	0.07404948141152461	0.07088292494032952	-0.03127938249815599
-0.01590403757477448	0.09027944109594516	0.01169928167794363	-0.01267534294894542
0.009980234537884282	0.07487926168325715	-0.03011316431338823	0.09926631385793939
-0.0691394391426453	0.06119758727909527	-0.01454280270513896	0.2322364540343993
-0.04029088991441179	0.01879088142932996	-0.002102256961454529	0.1633107756117702
-0.01597170475967805	0.007690703933494076	-0.005888118560128128	-0.02623821023732405
-0.01642054068471447	0.01725064333245842	0.0001033228222853007	-0.1082875231994973
0.01233993219192741	-0.009047423464811324	-0.0353494295315818	-0.1196891997720554
0.04096077823325884	0.02654146842219503	-0.05517481735362183	-0.05923525331640201
0.05030080927306418	0.06430299638333703	-0.006627530036715607	0.009942815452883693
0.01459723164623013	0.06346442142958941	-0.002540464475678685	-0.04048675301294636
-0.02549473480221256	0.03155186167096946	0.1683748067122672	-0.0669530866684027
-0.005064574582715859	0.02317451383058564	0.1079478603913667	-0.02012581223595884
0.05278388631613002	0.02992649044661211	0.04371148986951469	0.04073788613898265
0.06397179115166013	0.02076528044629505	0.02079475931543257	-0.03048197492569617
0.02452179185706963	0.008050218640964909	-0.01809124062967663	-0.05179495193336996
-0.0008141485185221183	-0.002609953939078165	0.01502144429671735	0.00267575656093803
0.01763870720741433	-0.0252494804134222	-0.01164279264485918	-0.007770415027801058
0.01970611382442788	-0.03429193215900855	-0.1224984800388315	-0.004861121702054607
0.008650960227078595	-0.04397234679255453	-0.1520039022212922	0.1608883819721351
0.01202941854600167	-0.05073650711350018	-0.1021526998793208	0.2986956084308831
0.005265845972534401	-0.05239597869774092	-0.05875028641659012	0.1726268579362483
-0.0001778154250819537	-0.04643422090329662	-0.03049616803636283	-0.0341872999370423
0.002353710576788466	-0.03183236123560227	-0.06614120934114977	-0.1442922661656889
0.005775127271633154	-0.03219243206770638	0.07875769894292649	-0.1472726680609159
0.04724868637216919	-0.0252394396204528	0.02789640014549825	-0.07192453075427122
0.04835463632682527	-0.01630857653087276	-0.005914685360675925	-0.003942104082828295
0.03786065388037897	-0.05117029942753169	-0.017096800830565	-0.01135682837515947
0.02670171381782765	-0.0492866581186673	0.04205027050064685	0.03956061402705725
0.02664935140657895	-0.0399609491727983	0.1412057165909216	0.07314711360128456
0.0312123076529594	-0.02737578643788072	0.1003295254709613	0.09022152119715328
-0.01753248018786592	-0.02865827570540242	0.1189017109523918	0.01193339642843817
-0.002899991191603828	-0.0002881074758382762	0.004831595944031131	0.03236290572630211
0.003905665019126538	-0.01169951042401869	-0.01839636037319829	0.04742355436639821
0.004876403489409016	-0.008830847526752233	0.01337056452809735	0.03104700796359291
0.008820498652808144	0.006326749555513489	0.006309162684546396	0.04528857621296844
0.008460844656082309	0.0223663459219957	0.1039275890567408	-0.04935486309734938
0.01153103303267553	0.02267604777845719	0.07815220230206503	-0.1420535896811818
-0.0007929330558515987	0.02393803805403297	-0.03797677622306167	-0.2122281687147376
-0.01583402369601098	0.03863524499393104	-0.07614873426291573	-0.1952015502968812
-0.01445737686801315	0.07487060630952462	-0.1739189571560229	-0.1110737398194804
-0.01455199955757235	0.1164858070443781	-0.2341469490758853	-0.09679925762573958
0.004708270721197033	0.08699035094750487	-0.1485935794142912	-0.02506358511118142
0.01261781291361237	0.041821315302532	0.1381076158541235	-0.01062323289335911
-0.01725702382384846	0.02650252038677502	0.1682938346700096	-0.02453853409452061
-0.03125987200870965	0.01489338114807281	0.0385621674742154	0.0282698394457135
-0.03000940244120502	0.0008817530352704406	0.03985434598635239	0.08040051117195732
-0.006740379598100126	-0.0209456997976364	0.00857971032001234	0.04384146081757628
0.004700020922459092	-0.07986872209032285	0.007844985091631762	0.06426203729689332
0.008920033615757172	-0.0991121851784417	-0.02237273309254234	0.08195964540104433
-0.03049807612980306	-0.08274031913228073	0.01842965564440139	0.09039029901235229
-0.02033367629350151	-0.04605092822684047	-0.01727235683757151	0.001157137678213698
-0.01288784676680206	0.008810852240968064	-0.002107117393056079	0.01378370390651212
0.02526125446345391	0.07459125558914531	-0.02968230105191642	-0.01455887172248946
0.02797975531853368	0.08339001025567913	-0.05050135206785641	-0.01460858697767316
0.01770672821183719	0.07508560009542847	-0.0827966490595472	-0.02017080465682649
-0.02161499403945418	0.05762271338038114	-0.05774022554133314	0.03297700586312649
-0.02970562636111862	0.04123630963876854	-0.04205109358096733	0.02272203480821215
-0.04231203322345541	0.01067214502503653	0.02293026242883537	-0.01606894223990489
-0.05842848600103943	-0.003762277835188384	-0.002675132742233243	0.0002132675233150358
-0.03089182020881455	-0.01529845460286947	-0.0401918772467144	0.01019245838591888
-0.002571092896156259	-0.009057289022081591	-0.01876920998008066	-0.02096598436263681
0.002442318159298477	-0.02565448696633441	-0.01937713372056497	0.02178090710413336
-0.01476644583558199	-0.08373753958198869	-0.03306650414137979	0.02836312840450335
-0.03194894851347627	-0.08277900325554663	-0.05812156839164373	0.03716858862648903
-0.009857407850710188	-0.06209382917493599	-0.106219985998961	0.02934926213326942
-0.01309529014476578	-0.0256285891853085	0.05260680608048951	-0.01653503530233822
-0.03454634725878127	0.01351815688095563	0.1087352308925914	-0.02542271622197948
-0.01670239305615673	0.01476522832392851	0.1535787796682531	0.02581499330519724
0.006002686276468328	0.01281498557706376	0.09917632231128311	0.05195092874124135
0.001540517607329598	0.02651642023323561	0.1849027727361993	0.04260068354211493
-0.005991932377996746	0.01738883444450693	0.1169182881297547	0.05260833211308431
-0.01113131600392161	0.007268267488671148	-0.07151558669362654	0.001194269935696391
0.0005250212748265934	-0.02347812974959949	-0.1610577796163617	-0.04097332200022339
-0.003196992743816101	-0.04698363916186018	-0.2195538059397932	-0.006051685742159177
-0.03423748380867645	-0.06791851743553652	-0.2360196967866557	0.1444973510567987
0.0004319782710243943	-0.03247409570791553	0.05000090438018195	0.09579743240235877
0.01765123905335257	0.01970980366563341	0.1136438401511608	0.008666117843629742
0.0144332406926449	0.03619367809892893	0.2026569175440232	-0.04184823143062459
0.009741987890633618	0.0388652001811272	0.2286326150446947	0.1072089311786084
-0.004615097197158816	0.04528042932908015	0.1491804085593222	0.1282308036708746
-0.01218702038500839	0.0367505925431954	0.02161341106249954	0.04890037835502276
0.01576334744229503	0.03912629172578026	-0.02701858432474859	-0.1351120796381284
0.01364157449809466	0.02849180623624072	0.01175707731812827	-0.168348073689509
0.03180188405947221	0.02252773735007371	0.002721543754984271	-0.1221668696396526
0.03038862781452316	0.006810939636181765	-0.06438150132070929	-0.09798136064326801
0.01601199549913231	-0.0005023403270759697	-0.09876676468475896	-0.09686287274924509
-0.0174504699094221	-0.05117068020914996	-0.1101529543377317	-0.07237443919212565
-0.01019435844720548	-0.114715438240853	-0.1397919414057042	-0.002344006174499902
0.01279404344263842	-0.08487579174630708	-0.1292438119944803	-0.04112517179834121
0.01680993211378283	-0.03071984089750881	-0.00910912509066749	-0.1009555198473861
0.04815507936072728	0.02508590817081259	0.1528262652168073	-0.05209425442584664
0.007578385672277792	0.05622499319121039	0.1310190624884571	0.03043351581353844
0.004632959323707926	0.07563775811898621	0.009702847171227861	0.08477174767981417
0.01404318142686016	0.09124413507127593	0.009615014854588464	-0.01670594745003438
0.02537527787268723	0.0959240977265076	-0.007720312739463858	-0.08966659821307239
0.01940022029634485	0.08201941911082364	0.007245714292336697	0.03469130220958537
0.0230309944096655	0.07275435733036652	0.1254048975324892	0.008028739122542662
0.03529417637860329	0.04481413038733084	0.1505360297294781	-0.003661524199511997
0.01918027567275611	-0.01584667924959722	0.02279203969265665	0.01270981560193364
0.03100455025943175	-0.02718770005071743	-0.1109568509870306	0.02920433958737413
0.02552993511589306	-0.02371974872592136	-0.2006683520041496	-0.006175242822912002
-0.03990973588930492	-0.02294187988387424	-0.1123823857807929	-0.003587739618458314
-0.1126382494462865	-0.04478842492508145	-0.03941797488604693	0.01363423186186654
-0.08173596579859177	-0.05157053439563718	0.1289266721801275	0.02647965623916245
-0.01735029151790351	-0.06066616802477075	0.1127983187167526	0.06786512663215481
-0.009618895551959085	-0.05864881516794365	0.02229322960120679	0.04008193725308276
0.01600560147205639	-0.05835864314940816	-0.02719427706130412	0.0451446019279263
0.04076878728007809	-0.03387482460023165	0.02090250774913944	-0.003102323222643926
0.04815339244019168	-0.008861338253670243	-0.01111361720102943	-0.06858694482359864
0.0191487050563548	-0.008245594868924897	-0.07632571967586831	-0.05360790225100227
0.04290571043151063	-0.0256243886424853	-0.04088109214618215	-0.03056517177033185
0.0381261468883785	-0.0375087229808136	0.07428464325710292	0.03270597121581554
0.02569859412038882	-0.02371418482908225	-0.0314826329421147	0.06087841702614469
0.01514343673931465	-0.01589940200700169	-0.04589909882104551	0.1211178717038657
-0.04319254000483316	-0.01319172620504193	0.005259797530639336	0.1556741187696746
-0.02302219610217079	-0.02180732900301302	-0.01094584305799351	0.0873251254403514
-0.007636437551501432	-0.006509222811465545	-0.03856094909796538	-0.01837623506140327
-0.05611342246845987	0.02921016866014795	-0.0923988124700155	-0.08569836326478453
-0.06394876253607253	0.02639944753006989	-0.1001507557434833	-0.08023870582165171
-0.01805671390286074	0.02836441431406336	-0.1547118058498295	0.04939140516644467
-0.01775011532202817	0.01665221186718681	-0.1631779591042557	0.02056367392224212
0.005184478558299733	0.01759671232715491	-0.1287785644625185	-0.004050508832945408
0.01748167877351042	0.01478004016269764	0.09656415164226743	-0.07640278172730383
0.02427918322519891	-0.0145755247509833	0.0934867882947106	-0.1206725103505615
0.02536304802110765	-0.05721750141894207	0.08641803919104107	-0.07163407523661693
0.03017307855998868	-0.06118299905771773	0.08652045959998028	-0.09351249426956851
0.001320919430747257	-0.04606881735996734	-0.009346151329631873	-0.134107127296662
-0.03540969468094744	-0.03481173526934659	-0.1213846973916857	-0.05491304519510213
-0.01165382935624902	-0.03508450457596584	-0.1486157977437801	0.05581875703343368
-0.006010839821806797	-0.06016981711929643	-0.08623858535879682	0.0896113806290693
0.02128009122744459	-0.02735431623911985	0.1424028988798788	0.07715210621607367
0.01434783453518798	-0.06205729746992268	0.2267321208599359	0.08850405027178934
0.01812636057495831	-0.06349547419379903	0.1033268827281294	0.03495634318754089
-0.01943890063087624	-0.0347715015482493	0.09786459783310986	0.008925102307867572
0.007442285281264826	0.04158225286856697	0.1894929564616816	-0.00248469284765425
0.01587148455668796	0.08601054010475292	0.1744420172092311	0.006080124360167047
0.01291944151867882	0.09485778716041007	0.007378068745418873	0.0122790751674881
0.01544575205284024	0.09711337439871762	-0.05427160186896061	-0.02088647275568148
0.01801470273438371	0.1072931506686525	-0.04152005187085366	-0.002479495546399277
-0.01266610473358419	0.1215131575039255	-0.06409141678731926	0.05563262866076603
-0.04828478756577887	0.115839941581386	0.08765561486570436	0.1045552481187437
-0.01217634168512134	0.08709657184643817	0.03393399184278503	0.1221083277551303
-0.02836038150916612	0.07415935821657489	-0.01095747636229064	0.01172908192562883
-0.004574438618398792	0.05497170829495298	0.09644106515234455	-0.08769910672406669
0.006263191199193525	0.0569214627413232	0.1288231779787593	-0.1073916017314202
0.009071816860853347	0.06591005754398825	-0.03610356749647256	-0.04624814770255545
0.005680199474744315	0.04868658841085658	-0.0520892755489037	0.0069227090867627
-0.005020521759716402	0.007358561521561145	0.003063994857105293	-0.03653569396241153
0.0009875585969706684	-0.06890327992573533	0.03277607715756839	-0.04472295780676447
0.01512389663506317	-0.05865732080747052	-0.04137487599505659	0.07775674853938074
0.02458494971938103	-0.02890363488027141	-0.01964795435864796	0.06050501111604582
0.009846819116748184	-0.004056360689908395	0.01832018888361007	0.02959180081080284
0.02158337898017813	0.008262975411284016	-0.01639210454791121	0.1329866453353048
0.01408861098134435	0.01120259667756045	-0.01787635348716424	0.1543821397883752
-0.02074877602190636	0.01353031856720241	-0.06552717414340989	0.1067688238684185
-0.01223280046281754	0.006358590112312478	-0.08545910464306328	-0.1070847979577758
-0.0193509668178167	-0.002383814833528571	-0.1316059768389224	-0.2558583605181418
-0.02529198382031683	-0.01996419902002614	-0.07650077226177544	-0.1783395534440776
-0.009343838161090618	-0.03112639278856582	-0.03209287287549139	-0.01130066654725537
-0.0048404713151557	-0.04056649095796465	-0.02335523780969976	0.1026702227451376
0.00057380617559967	-0.03707329035226439	-0.04414341875023544	0.05213207285661167
-0.0004502947789648183	-0.02435276283743062	-0.07469639821214794	-0.0769320208274801
-0.02547053050136017	-0.02029241085090148	-0.1456588771227623	-0.2032680846008294
-0.01296003585734079	-0.03573771352610623	-0.0995524456029382	-0.03544911717083803
0.01040178560963361	-0.07169793933483024	-0.02073165172650922	-0.01309855651107465
0.0262365884358435	-0.07188023032870539	-0.03268301695745269	-0.01297531597254812
0.01453181497312771	-0.0350463938780075	0.08182393334561816	-0.03687250654438926
0.01844531728940076	-0.0254331388107045	0.2218008462011397	-0.02207095505418509
0.01023188184098293	-0.02965153440565283	-0.04534936195519478	-0.04012640746667832
0.00581249169960524	-0.04260661590297526	-0.08656303387790373	0.003220566207487898
0.01760050816580043	-0.04089167011636136	0.01039590571403467	0.05342484304764745
0.004907822655956021	-0.01822596987653606	-0.007479416459534659	0.03733572376454429
-0.01320715176653365	-0.0004513808255888998	0.001099573877093893	0.06939836200235355
-0.04530654199047023	0.006164978357068412	0.09403764364778959	0.1007313826757633
-0.04251197400527083	-0.03801494347899651	0.3223014853988369	0.1538853151782643
0.003722698891663629	-0.03333302549485132	0.1730319201267695	0.07562572831905362
-0.0166720467198142	-0.0402993162526904	0.03615390478099744	-0.004749578496079772
-0.0001388793121806095	-0.0255393979233151	-0.03388255698954517	-0.05674298378047163
0.01809768414412334	-0.0178125942092243	-0.09313879507740443	-0.09408405542610312
0.02913796462916803	-0.002982329722297509	-0.1354333855614064	-0.123159708841163
0.01814021239752381	0.0008118298935472181	-0.1937192331793044	-0.1030015331822901
-0.02456380368787872	0.02812920049790896	-0.1664929669210811	-0.07216101219908182
-0.02689824788618263	0.02887059913516591	-0.04473365442116866	0.02004777836416999
-0.004650343290621022	0.01907153649987108	0.0339223426207626	-0.0002448669259075598
-0.001106408123174186	-0.001034813461726181	-0.007882085736266649	-0.01625576056662445
0.03118806599152529	0.01725271311218354	0.2234397122435521	0.04162137928088797
0.007808520335094035	-0.00316007463656099	0.1908954386172214	0.06512017602416062
-0.01384448987073231	-0.03218033989579042	0.07048207212853419	0.07956440791165686
0.001912124574652435	-0.0217526939023856	0.05511162652829606	0.07569132347757046
-0.02809772226027727	-0.01307019498978311	0.04784259653053383	0.04176331140585823
-0.03372361449127802	-0.01852593429043021	-0.05376472853527584	0.0216357157817362
-0.04164352797396081	0.001868890696365639	-0.1393005873419646	-0.004309843072163584
-0.0219702798770666	0.01073831542781931	-0.1618138084885441	-0.007700187385607334
-0.0002909158591550776	0.0171001186721052	-0.1890126266504014	-0.006152287107062934
0.001190926557224227	0.04388869147418749	-0.1858721482224422	-0.008082833166448519
0.01567528116908334	0.05494198570478755	-0.07675153369399465	0.004337924808644105
0.03886141669063884	0.06166336712791561	0.1197890831228599	0.04384481558119362
0.01794200557216551	0.06895986367257249	0.2055912109299972	-0.006282033730510721
0.01413504868970419	0.06861903135382771	0.2420069303769794	-0.06511141831533397
0.009672410146849263	0.07084337419009047	0.1071900686124407	-0.06152142506517237
-0.02456122327095314	0.06055583408443805	-0.008443960270339525	0.04037224044550265
-0.05040024348444092	0.04638102885526108	0.03134442446337452	0.07116820721556048
-0.03042095131992901	0.05707323818522933	0.05106542576977707	0.08005168482067292
0.008806988875188984	-0.02079851378643495	0.01541247388406735	0.03069129024607487
0.02875783955144583	-0.02317493604419045	0.00204086624171438	-0.0104160050431291
-0.002157939207302454	-0.01357175755800176	-0.06636964744636355	-0.01312774334955088
0.01431279404851626	-0.06640623821289543	-0.1184153649208622	0.004327553795503898
0.04813242581503326	-0.09758070392049513	-0.08627789377077633	-0.05187734920927886
0.03307739577102369	-0.07507497794630096	-0.09822909742371476	-0.03949147625758524
0.02109440423895642	-0.02519257240402206	-0.02781585132268663	0.01539512634969329
-0.01794839572212727	0.002946327275619016	0.1038318356544189	0.01560319611644151
-0.03374950735490563	-0.04164075361024366	0.1468424067022306	0.06086031485793986
-0.03353336623851872	-0.02884532487357409	0.002861359694714294	0.04782979452109724
0.003286479132730218	0.02954011692496557	0.1362111533072789	0.08988301709779471
0.01567890090985322	0.0546524326882632	0.07751147443564449	0.05819329993923018
-0.002419780494028131	0.09516456618804447	0.02534966797963787	0.03011320252132758
-0.001134605450328252	0.0909216949718752	-0.03695214761144225	0.01522375996495788
0.02923449453377127	0.05310629447270775	-0.05664483702454735	-0.002813798040827495
0.0355884684639061	0.04701693175990986	-0.0474493651749116	0.06968955101928165
0.04442139526791269	0.08095308271537931	-0.06635069624213075	-0.0881306037660623
0.02533982496401761	0.09757210248163586	-0.09884272852024804	-0.2547420936140212
-0.0130249672510133	0.05210891971092733	-0.01151935974946678	-0.2399351959080577
-8.022971836907789e-05	0.02511598709908549	0.1110696275180876	-0.1012247076285541
0.03340904398809108	0.02622515684665012	0.02347336910097407	-0.02516879678070817
0.01632880432052075	-0.02339919888695367	0.03137911203972105	-0.01782753741563279
0.007336327205306982	-0.04188405720705374	-0.04252580555150917	-0.02707070550595105
0.006029833082078875	-0.04066503398523395	-0.06969543587547705	-0.03815323449607597
0.007639191794707606	-0.04522489517827192	-0.04287394230045572	-0.002628293122424659
0.01929532891964242	-0.1050152621850516	0.07714384260876309	0.1049131544349916
0.008373081427155985	-0.1105686607284412	0.07064212778667699	0.07816763811317476
0.009851394861711875	-0.05037006507158225	-0.07878701962257435	0.06115337087882599
-0.03101280117828959	-0.001981936230152965	-0.1355721137906128	0.02560214921214959
0.004502966026764175	0.04935424368146925	0.02789541438744326	0.02313987157281915
0.02208868148893862	0.08540931174943221	-0.09016106949631621	0.1557699308145777
0.0002687996735053841	0.0869922380043575	-0.1614681978788264	0.1277712340052061
-0.009787284205005438	0.04717417525356101	-0.03056091768384564	0.01098252633023894
-0.01267232383106031	-0.002746375861545032	0.03115772796374418	-0.1184530774628882
0.01284872095269506	-0.0529572655217595	-0.02198152445658318	-0.1136693250242732
-0.03896403102139609	-0.04134799061809911	-0.136097341292679	-0.1132532481421438
-0.06551367306451797	-0.04631379774473712	-0.1207714954213548	-0.04838891153621268
-0.02407618274087591	-0.05073453952164866	0.05483811498221902	0.04406890576732513
-0.00070583172318962	-0.05288012387141899	0.1292072647652886	-0.002477528276733339
0.003135722278834726	-0.06421020076399593	0.0512229626060158	-0.04707292585490024
0.0150612435815144	-0.05483030671472611	0.247207441640692	-0.05332853019234737
0.02434847468637876	-0.04898758362750116	0.2611074559259343	0.04872016980894292
0.03721609215977868	-0.03230502691493115	0.03372575839276983	0.02637195997224894
0.03121871781049212	-0.03225606187555217	-0.1080865016119142	-0.02808196889099496
0.02504540657364153	-0.0247942918500201	-0.1611201479467377	-0.01131521149618037
0.009455466071101433	-0.03150032630467283	-0.03627436570981681	0.01895519614906893
-0.008208056275106877	-0.0440173115994603	0.03272675312556581	0.03293083757294034
-0.02157094835928553	-0.03046590001179462	0.143363518957994	0.02634799244930471
-0.02100646182172088	-0.03412870379221756	0.03786424545890178	0.03882552266804173
-0.07940373576189509	-0.03716469888793595	0.04569099495153353	0.008815970841439917
-0.07718874936540016	-0.02745205096568514	0.03862232127480963	0.00991474638259811
-0.01846704038515261	-0.02140494072129373	0.008580811738608468	0.04178338994900126
-0.009061725042089137	-0.03180966265628873	0.2169913812962713	0.04820885749141007
-0.009118136796477249	-0.04332176028819362	0.04497160454239333	0.01340903892406919
0.002180398026175812	-0.02546440984645047	0.002086842325760395	0.03012341505709776
0.005074847371330937	-0.02044489108886781	-0.03520772696151413	0.07402275178094544
-0.0008025849822504144	0.01683188603794205	-0.06816287792215993	0.1430220867057321
-0.0003059277177367991	0.04218941723813771	-0.0113001321591344	0.2504686553486641
-0.007590764976210739	0.01985408325032776	0.04741719920480587	0.1867822956391081
0.01391752012817836	-0.0001487218789126941	-0.001591613054191785	-0.0227815924553524
-0.0150439445086874	0.02205088409937921	-0.06098920246543481	-0.2855867566638802
-0.01334155334188947	0.07054563528915389	-0.1090801900318023	-0.2679752235704199
-0.02785985273117622	0.06998978661764953	-0.1613877298845693	-0.1586936619451626
-0.003571475815866058	0.07410851885178929	-0.1527226789760008	-0.07170738861176004
0.002500617085713945	0.06092591780343766	-0.147213427192892	-0.02135926887616266
-0.02405271845286493	0.03917130760126802	-0.08819492003433292	-0.08258456186017744
-0.007214559555223603	0.03734328892291153	0.1713601243232535	-0.08571503174753714
0.003286731518139221	-0.005511824198775031	0.1174899895309388	-0.0399100105683528
-0.002758923479812716	-0.06515017377039163	-0.02461466808052055	0.02722916961960876
-0.002448793976163687	-0.03441196293603065	-0.06967320747926446	0.07441070519267928
0.01486447786923606	-0.0004703863530554267	-0.1045230351301264	-0.03403880425920698
-0.004916677577912591	-0.001951135760563443	-0.1025768294859448	-0.03648061317627612
0.02885977807923245	0.01280964032577955	-0.01794786912252382	-0.01344794138948567
0.05048557494247538	0.01320313871590077	0.07174921772365668	0.02274785402947537
0.04758731201024744	0.02614347042202092	0.0825931935765126	0.04043824340913823
0.06191177345316687	0.06133082033310732	0.08805191783102111	0.04454604360126965
0.03481227078924524	0.06553153541306461	-0.01600789062291117	0.02830664987896025
0.02395832900916268	0.03306846751390134	-0.1174828585496259	-0.001219092842995977
0.03926501264382622	0.03705340272672881	-0.04726796944375392	0.01807314270504335
-0.0001190309369655459	0.02354722479828644	0.1703573538633762	0.0318478711364293
0.02635646967442674	-0.02421833590079921	0.2308404369020866	0.06031017982884595
-0.0381737899289316	-0.03628176027625452	0.124625682580507	0.09991967875858321
-0.06938636227725221	-0.02170468402664734	-0.005828774519248518	0.1547460952221221
-0.02542312741500127	-0.02538802017437236	-0.0722585427961254	0.2148161066590085
0.003205990270527151	-0.07506187340045258	-0.05145933418097297	0.1410894370297986
-0.02277224461002158	-0.04805885106169325	-0.08460399545522923	0.2290736813595182
-0.03664600808827283	-0.007709525400579884	-0.1549774404396408	0.05066602451743758
-0.01046906253075966	0.04269818484890846	-0.1198716841025364	-0.1301485572008844
-0.001355443760349698	0.05198841189922894	-0.02888956667305284	-0.393893525869204
-0.06810159791613161	0.05397875689558217	0.05059865419508114	-0.3406094495001279
-0.06827739973764252	0.06035063600368058	-0.004769548502275311	-0.145216789137658
-0.03386871845169026	0.07751698206806851	-0.04175046736185542	-0.09792193079472367
-0.00096326708453627	0.08839215210060841	-0.05009431637426535	-0.01948350955999707
0.05687342699824059	0.08446476824123272	-0.03923943984292702	0.02070066913035192
0.03094815022893034	0.03862273004107345	-0.02158659786156849	-0.05630176591985796
0.007055487741908638	-0.04450768753655805	0.107100930686883	-0.05248293917820721
0.03484577773567994	-0.0594322429168043	0.1320234881953464	-0.04499928969133089
0.01105266968169975	-0.02729483382217101	0.08424165350414073	-0.03628925157560322
-0.014568114460945	-0.011401311570293	0.06664108881737618	0.01005609635445492
-0.01894924491199217	-0.02118185474077867	0.07499543406010352	0.03633502329052538
-0.02929055328504868	-0.05428411457203712	0.02385373261608397	0.06170515174315268
-0.001900065456853991	-0.03206854684348394	-0.1167590884710006	0.04931994737070214
0.01391441533394989	0.01196865744952625	-0.1637976046308127	-0.01304915579519748
0.02014698226828914	0.01224501143983282	-0.0900704942384136	0.003314805990619045
0.01739640237323686	0.007197697624427258	-0.08899594733836227	-0.005268796085935041
0.008174384346086336	-0.002130296565547477	-0.09592004683365346	-0.007005055793955824
0.03915183224930547	-0.01073926549129509	0.04194245344278306	0.08374257630055477
0.05534355960828725	0.005692779312091094	0.05514775965318664	0.09611422063992772
0.04733068395166679	0.0113709022028287	-0.06719196378293535	0.04235757607535508
0.03185666881692736	0.02651744253881753	-0.08623570463080696	-0.1092317641375605
0.02020405775263832	0.03421869088054454	0.08002190426103037	-0.09895662294795267
0.04648500772264279	0.02100797735292997	0.4088842292899828	0.0688553361112938
0.02968791099179599	-5.713122484613343e-05	0.2564854757185856	0.1005644804972042
0.01258736160505411	-0.04724555143492803	0.1221909188362345	0.09583194145082288
-0.007833601942289872	-0.1081366852624103	0.01941689959799571	0.09852487502645958
-0.02753205174967534	-0.107988596511034	0.01339969999844746	0.08425236230210803
-0.01810381915252965	-0.06493339090969986	-0.04662747470294712	0.1139550675598669
0.009296480093551605	-0.07792201188470681	-0.04540252020648835	0.1219463166964792
0.01066413871326543	-0.06562476633066963	-0.02898374860793546	0.108552585773577
0.01110788382343337	-0.04553646022966698	-0.03669145108608871	-0.03864920555406796
0.008632287662706996	-0.02278600121923749	0.0112992196375676	-0.06700631529680104
-0.001783461214457351	0.01297261347032573	0.0004614417713180578	-0.07532431660431137
-0.06525435884988037	0.02568965078887461	-0.05999493846485493	-0.1535273569751217
-0.03966223522672441	0.0553191356758129	-0.1167090116279224	-0.07987375050338025
0.01222001565557503	0.1073827038403001	-0.08374273886811005	-0.01751003343972482
0.02409298300509461	0.1161919703695369	-0.003565040213566139	-0.02700189231602287
-0.005903361137341177	0.1023713137311137	0.1873852284121409	0.07614086229145839
0.02041957406151885	0.06915283523520685	0.0510353248633703	0.009856536711008277
0.002405542297724352	0.01968178603496449	-0.008054153841014454	-0.03044892038706293
-0.01837719645445618	-0.006628645320866631	-0.09106662004751291	-0.07134549254427386
-0.01902675259721043	-0.01776131311201246	-0.1100860899922789	-0.03704918131401583
-0.03698562621093628	-0.05003190041240094	-0.06511921548699447	-0.01298659637343225
-0.05058233085995389	-0.04009194661115689	-0.009285281348353698	0.08673170251397619
-0.03557499010898706	-0.03274779026797207	-0.002153807330589788	0.1453690637691584
-0.02005650489642046	-0.04718949586937745	0.1394646124692434	0.19300291947777
-0.08535149633408159	-0.0677645391363627	0.01334408744705075	0.1226336411905772
-0.05984054184071471	-0.06412643863543735	-0.07034950598568725	-0.05415031598970755
-0.03543016897771002	-0.04854784277370223	-0.01204034148137181	-0.2108041686816558
-0.008618271310413161	-0.01698324475448403	0.08108705916338957	-0.142236744392902
0.002022601658199317	-0.0006736557058720134	0.08219270985228923	-0.115350793857029
0.00606230630988757	-0.01632210908294175	-0.06950305123564327	-0.1740517309397573
0.04531098061608231	-0.06847134642779851	-0.1152650060871411	-0.1361548749605414
0.03393446656836285	-0.04121068399374831	-0.07076895881251355	-0.08753033177407707
0.05573117915728535	-0.01386265165056701	-0.1480970690226882	-0.07275873709814625
0.05966681950221615	0.02525081402726602	-0.1993939794619594	-0.08037180626191551
0.05645705529155336	0.02903526502451231	0.2854876908897196	-0.0002351884433890763
0.04835151617431324	0.03676932962802695	0.2958067306066911	0.03773999642567892
0.05175584734723977	0.04268974520349075	0.0152221405504304	0.02780686928256314
0.02598880815413162	0.06091899380019185	0.008221840283861092	0.1074598579635452
-0.05199811832760014	0.09992091155180816	0.2265468030421556	0.2063154650178116
-0.07409192001908282	0.09272648795558584	0.04754165492010811	0.1325329371626271
-0.08713710053020582	0.05558552576230514	-0.05834392196912823	0.04050660712908023
-0.06896031726339164	0.0445098982158505	-0.0928975448044865	0.0005968595787916201
-0.07335033508974383	0.01831114557874762	-0.1121892313196959	-0.006588395074046895
-0.03573769527736372	-0.006431279082063212	-0.1504849475177129	-0.01650547415353
0.01987421654242265	-0.01596795358226068	-0.1590822724400853	-0.04489849635424001
0.01958975816735076	-0.02134426372178197	-0.05690400991097134	-0.005661382158800996
0.008910784040920399	-0.04769251209811666	-0.07301734746971147	0.04011338990247166
-0.01393148782716038	-0.04850220865276573	-0.0008246327592012882	0.07749541815914865
-0.008779975945528207	-0.02718310212617557	0.04744779528168866	0.02377395894851712
0.03973469909899939	-0.01753731460802115	0.07566535867101153	0.03215024707470709
0.0430425276281864	-0.02936282191038713	0.03360731356587614	0.1433190093679979
0.05031304227715853	-0.02020237997559949	0.03069884898434307	0.241633262546826
0.1045191640331343	0.00214012419356543	-0.05383816536542265	0.1103235275880244
0.0761244357487095	-0.01143484584109272	-0.1408585964589904	-0.1485029924586256
0.04475331438420553	-0.02767798326985915	-0.1927870261204421	-0.2611091229583076
0.008902062181954091	-0.04702858554957341	-0.1188594090732746	-0.1617117163998803
-0.02963558596101454	-0.0829713139737368	-0.2075959161043014	-0.07414301146524419
-0.1182451938822381	-0.09230908056085294	-0.1837719914763627	-0.0944225979974148
-0.1001211513379651	-0.06536284279665834	0.2072369946413142	-0.03747320843453823
-0.03885431088385181	-0.01598035332821984	0.2444068047441284	0.04697635635933335
0.011718304182883	0.00417929174191117	0.4777456969840843	0.007142190565058093
0.03256106366087497	0.01951119147064449	0.2168886611099987	-0.002640576373479351
0.05475666841705212	0.03584092689842474	0.1314828373586177	0.01415505450313242
0.03918508787907959	0.08073498251496861	0.07916693539534417	0.05967931760257113
0.0258818872888361	0.09172502526006512	-0.07049202319388775	0.1952077557872057
0.03651742420735608	0.08580592673934524	-0.1317555998051085	0.1834311999080509
0.02345192505550879	0.0189556908635603	-0.07506145854786613	-0.009230647289648295
0.03246918303343726	0.01878653803101102	0.348649753154259	-0.1370906285106778
0.01092247723476046	0.03783146833660089	0.07808794738179609	-0.1313873374281311
-0.04038155019433561	0.0395389790350788	-0.01920578215549589	-0.04341653571676284
-0.03168983724137303	0.03315763492631642	-0.01345388138385485	-0.02399168093963771
0.006521018173929824	0.02417391113036627	0.03274993388024047	-0.0166873591540073
0.01393159585900546	0.03453298481305775	-0.01160400649437041	-0.05213897587053416
0.003008172006549079	0.05319580880474382	-0.03053440380360313	-0.002023544333713444
0.02298690984343188	0.05493806277666821	-0.107160529706303	-0.009882126548048096
-0.01278801542782968	0.01932005813034253	-0.09548942155884323	0.02847811345713028
-0.02038317865326431	0.008111258471014019	-0.03167529410833812	0.07835487870305939
0.001830367209309754	0.01959419129519805	-0.100504804026648	0.03106014756167028
-0.03034292552802867	-0.003208710707891523	-0.07448355440166814	0.09033384781637542
-0.03654722612516354	-0.01301032508718634	-0.01790169194714453	0.0403745072781291
-0.03025609972547327	-0.02628277296366112	-0.02511485097540826	-0.02344412481930449
-0.03162276166078574	-0.02408728415358531	-0.02858593467882361	-0.08347092733829012
-0.02584342831498087	-0.02493678511864084	-0.02919002296697963	-0.141569304966476
-0.009441416042752277	-0.02402351179422119	0.01030997741136844	-0.135673580187093
0.00657030962223462	-0.0245363571685501	0.004026195649521345	-0.02138853103537268
0.005638429205905379	-0.01305093543962628	-0.04287348985215794	0.03017492582667234
0.03043872471575445	-0.005359955888174966	-0.05722999382412685	0.01206951637642149
0.07939786889722041	0.029562473501571	-0.09241642297853347	0.01610941585498608
0.008940439025413549	-0.005435588765125917	-0.04100012243750511	-0.02067575063543328
0.01912376471268047	-0.08450172411935376	-0.03815812015876874	0.004560871978788949
0.02188291071669833	-0.1002763273848372	-0.08214271586705242	0.02611729351843251
-0.03294171274281445	-0.05788561171952116	-0.07860276316964877	0.03875803871560553
-0.03997391625939732	-0.02353231221700314	-0.09904703466181336	-0.04732441545211341
-0.02413294042615037	-0.005446051805773311	-0.002076572580198785	-0.08822729453329822
-0.05982969469584602	0.02529935315730476	-0.0303612703787683	0.01478352820608218
-0.03985726718759275	0.04314178205440886	-0.006413441778317881	0.08431869176494931
0.005857015747828051	0.04747112466700569	0.05036857054091373	0.06483176270872373
0.01317802631377372	0.04931897654015081	-0.03454085220441911	0.07003055566653724
0.00615810657436333	0.02551143243865085	-0.1051063129716745	0.02294892126547306
-0.001996976948021987	-0.006174894973139011	-0.09629195619675415	-0.05690927504958242
-0.0202714255942454	-0.00659728509267345	-0.09329965511030493	-0.08083178985198872
-0.06017440735989995	0.008989546402676726	-0.0003568811417713056	-0.06581069210655473
-0.008340699959705307	0.008389049568229581	0.2203116015781183	-0.01625693108648334
0.02023927407027341	-0.00114213097886129	0.6173570056507127	0.05005426585693866
0.05053955168337707	-0.01265123397333899	0.244372822619541	0.03284388137233323
0.03106144007517655	-0.02960770030433729	0.08769117785215144	0.04629400852621476
-0.003811372489215195	-0.0523932122428675	0.07369616974784431	0.05375826717884506
0.04855985772611714	-0.04004429236297562	-0.01024959144603054	0.01448446367341022
0.03535569131984648	-0.03102172600151915	-0.03858194829356872	0.02175916548237881
0.0230895836512492	-0.01869757345682529	0.05659968448270777	0.1695135336369263
0.03006207204399373	-0.01248118861411908	-0.02440350394032317	0.09434841277060868
-0.005586068613095842	-0.04661022480785802	-0.1207036673509211	0.04925086362044069
-0.01270312459017351	-0.05515954350367323	-0.07167134728740747	0.04235247326763108
0.01775193258621875	-0.02871078631827366	0.01645861728305363	-0.01281499943356149
0.006536401568261682	-0.008301083912171015	-0.02390784692254857	-0.04672869898625306
-0.01153947998930398	0.001836170110736718	0.1674787717562357	-0.03702274472864346
-0.01606882763628324	0.006241886265808708	0.1569474888876109	-0.05940183838569543
-0.02398147372535775	-0.0248629230445413	-0.07631234619585207	0.02441368518042016
-0.03723218818939618	-0.02346684886236876	-0.1717963452313659	0.02842292743500711
-0.02972367963918522	-0.0121536984023497	-0.1657324804348826	-0.02533046441118197
-0.01826693147453559	-0.007180327625782114	-0.1473316757377214	-0.09924183019430845
0.02502369739178256	-0.01541997567812598	-0.09206845233934062	-0.1032690971226357
0.04534619268524939	0.024887951489205	-0.1290259449343941	-0.07876774618810223
0.04416535514006654	0.04700039527329716	-0.02743395385454712	-0.02919731611136154
0.05475404577836444	0.07061425527245049	0.1448685243111096	0.07919713146260218
0.04884608359939001	0.0936799904797313	0.152385889145662	0.1201093603169481
0.04042223639050943	0.09792974344086514	0.1243345439285714	0.05522135518686099
0.01256291434207982	0.08498735130374166	0.09072200316850441	0.0108023991669254
-0.001439538011912536	0.006049627173191527	0.08114490553486377	0.01254427971068433
0.01263144773244831	-0.02456532151833046	0.01926089815024136	0.003461376649066259
0.02104521040513769	0.0007869279161356254	-0.005140982343031749	-0.05896495462635008
-0.03406360090414053	-0.02360110402362743	-0.05620507616697869	0.05477682017794148
-0.03925767778330098	-0.03665280002530224	-0.05264850202887541	-0.01235442353927975
-0.02542184852731671	-0.02295284647244486	-0.09100801956978379	0.05318402810182924
-0.05483279402998315	-0.004349731449887245	-0.1254771837490429	0.07394239893164282
-0.01109417853021	0.065605602441106	-0.1283579126907554	-0.03622158217957619
-0.02111688637012616	0.0790356493137476	-0.03938540920753367	-0.2121327095628363
-0.0382255667078869	0.08216447495614863	-0.009506421108992623	-0.1829052297859051
-0.02877372928740973	0.07200785120364128	0.04707366881575729	-0.1104938054147152
-0.02645892587153694	0.02797945956957829	-0.009616720608132621	-0.0002063973695732451
-0.02050750975183824	0.005071045121467981	0.1113989776652183	0.005745387518542127
-0.007857083166282461	-0.02976721548684115	0.1055020502652357	0.01424035177441637
0.005006046969098453	-0.04623379489407502	-0.08469162468275165	-0.003418423988270618
-0.02152517949758035	-0.0438472918191319	-0.1414755407505224	0.01492361171833743
-0.03607590208775355	-0.06727508737571343	-0.07435384668695738	0.02223043486629928
-0.03085804350072326	-0.06436595539811708	-0.04000258519360519	-0.007164462701843728
0.008142730417331875	-0.03707292025879706	-0.02002704597480998	-0.01363101898280903
-0.002380263660048041	-0.01071075273934667	0.1919165938565628	0.01682890645139781
-0.0359159988580103	-0.01331080656456344	0.1334501411328798	0.01414662659085471
0.01221192687214693	0.001189657493057219	0.1157086007764186	0.006254367943326207
0.02357002800157184	0.02259291160535783	0.07401966433784557	0.003406529949547117
0.02398072409732053	0.004224879926415803	-0.01865373612835485	-0.01858127378453511
0.05406454194480038	-0.04632320003842369	-0.1662227481467403	-0.004031852250967238
0.01990669988719521	-0.1365681197203874	-0.168882103544054	0.02251374717885741
0.01545288376991094	-0.109710327979387	-0.04435424759494992	0.01778829345035597
-0.01393597224299317	-0.06274185871651217	0.1031885867131321	0.02149827510653887
-0.03323163456817305	-0.03180821344479316	0.2100235605285704	0.03865076003259375
-0.01582895947587962	0.01540682665628398	0.06888703334922752	0.02742108269583077
-0.01108189811444705	0.02994702780867196	-0.00578676069616364	0.01093533371910749
0.005988427297610384	0.06832215151874409	-0.03968267318832686	0.05445436686661401
-0.007687703135505968	0.1242949152130873	-0.02411625086438808	0.07884587131537199
-0.004154411459000616	0.1529991909318846	-0.03166782172372104	-0.01003669668452057
0.0243038375674596	0.1090410777454173	-0.08231638710043605	-0.0967053358210959
0.004034126785625089	0.05345990660537513	-0.089386262680323	-0.06637165895420577
0.006656440890613918	0.0182198758546742	-0.03872780083892289	-0.01082016860089857
0.03695673435090557	0.01552441384240368	-0.05990559799073764	0.01041923349617598
0.02310899374502167	0.004837059412830984	-0.05779257616546499	0.01464866675527477
0.01337467489490934	-0.01502717723215411	0.01070831884679	-0.0003606384685593742
0.03407290293013733	0.01045815305478877	0.168770660531408	0.0189528740549857
0.01871319652226086	0.001891952687010361	0.1646920643090619	0.03961198691799318
-0.03320577718185352	-0.004755664237121654	0.03275738086110223	-0.0004306078174860394
-0.005905868310954157	-0.03079593198391676	0.02108755060216514	0.1391413942694774
0.02861478818285788	-0.05116126225398899	-0.009508366740130244	0.345891329757629
0.0460344823061921	-0.04915469024056568	-0.0437927441703906	0.2563985037425214
0.05362037544644209	-0.02673426748862258	-0.001698940344334175	0.02983452812294689
0.03963296551114984	-0.03730828038599664	-0.01612576289905348	-0.2594779305348604
0.04710649534274821	-0.01926232112968946	-0.00848501484778998	-0.3224125522231912
0.005840714887964201	-0.02866487416577369	-0.03188484384272769	-0.2082970273680152
-0.03718754649956863	-0.03781156341120513	-0.02991671015249864	-0.13030674834867
-0.06228900187887516	-0.05821910913747871	-0.02724893168412066	-0.1069223172686117
-0.03081940162478038	-0.01581702734632576	-0.01646589085383365	-0.06323221982405923
-0.07462361263894686	0.002885725582144285	-0.0579459678488353	0.01533487694094499
-0.05251279194823506	0.0322653810624167	-0.03535029078417581	0.09813119825295029
-0.03120137130728474	0.0415152726124304	-0.214923962704441	0.02561885445539775
-0.02619241719323065	0.02641555891948101	-0.2369275971119002	-0.04095064254286873
-0.01718874357530275	0.03558373805906143	-0.2090697211964581	-0.08010648326007881
-0.005149295624405066	0.02884099808335584	-0.1587051607423905	-0.0782741068281966
0.01058451871711792	0.02309713819571026	0.1344321771484148	0.01325046214192916
-0.003230287842829565	0.02371339390580081	0.2731511377898564	0.0200879832919554
-0.01729277939784026	0.001723734792767149	0.340906307223553	0.07001400733162083
-0.0248827588150072	-0.03805714649827354	0.1736898513963885	0.1487170535679726
0.01177554628519528	-0.05112925031754992	0.05103460411179229	0.103550009104294
-0.005354151927476944	-0.05576331812028521	0.02774831408001819	0.01451189416465168
-0.0113631569182911	-0.05230575980966019	-0.01455045921793081	-0.1222835527996232
0.01847230091889368	-0.04431107300182586	0.01060157072708936	-0.03084858210871466
0.007399947918845798	-0.0463727483356363	-0.05118654565915687	0.01879469729954147
-0.01318108075681956	-0.04658911759209155	-0.08671050136557455	-0.0103895275610343
-0.01210781831841477	-0.04373114160557729	-0.2224114170034782	-0.04658706665339894
0.008963427903007233	-0.03593703881319346	-0.1404903514548389	-0.03142769387887018
0.005278398703776352	-0.05215411880551866	-0.1017959942386162	-0.004018683429630288
0.00910177700107929	-0.02216709605527513	0.09845451805654855	-0.001234313638206502
0.02723386338010075	-0.01126121400391323	0.4162570352395057	0.05612640998981422
0.07160234071458713	0.03703529161585876	0.2946688238999103	0.1277501621111246
0.06694096433703466	0.07988037738269434	0.005595294001160318	0.1310622919100563
0.04225541404274807	0.08391603004428182	-0.03952142990046081	0.04969898488257904
0.06520062999885284	0.09571711486675834	-0.06161503867673819	0.05091993962427527
0.06613676581158334	0.09851050594488461	0.0206550167553197	0.08577859215987524
0.05192693306751787	0.06645731014334638	0.1531467514386706	0.07082762018696023
0.02004820336324182	0.04019364773660658	0.2563934256517825	0.04625334563350836
-0.002198476727280842	0.01847183229462236	0.05707726717685663	0.02445844492206138
-0.01252681993759227	0.01081115230760039	0.05240150359794941	0.01277946450997381
-0.01111468584816775	0.01751533470236933	-0.09772069608642149	-0.03932115612120778
-0.00903477273126182	0.02435421083403546	-0.08224660543223629	-0.04381485691757445
-0.03577998777373883	-0.005652818963485709	-0.007659681194972916	-0.02553450494869052
-0.05366294611412162	-0.02730348221780918	0.02448550065831259	-0.02724597630632179
-0.05094560911099315	-0.0265478826219737	-0.02302577799706217	-0.0271973185321947
-0.02989359224914782	0.007983728067185107	-0.1007768938491185	0.02027092818022123
-0.007239705169905749	0.02598235611101679	-0.1038478049729515	0.04993066664173487
-0.005064314081543961	0.02409240206296955	-0.05857961860649214	0.1660261606422455
-0.04256886608824589	0.009904422720976181	-0.06013014333192504	0.1609805598261524
-0.02779575650306225	0.00222829698175584	-0.01142416505860423	0.05753871019240375
0.007891381399852609	-0.002722880010384532	-0.01624374175099356	-0.1087261918851963
0.02339219222087846	-0.00875801316356851	0.005097963120360905	-0.1809343422763973
0.01927869896172081	-0.03016570821538593	-0.003722642630411166	-0.08297485221140734
0.01483820823600199	-0.04242716880339702	-0.02389899461514577	-0.05814471783878591
0.00946066069694297	-0.03349975403628597	-0.01717718390461577	-0.05697450024552093
-0.002225813642855081	-0.09024372614857497	-0.09379679714985831	-0.08578715792890161
0.003152681216661831	-0.10978412261789	-0.1724217884339179	-0.126565562139439
-0.01504925600077652	-0.1199388953048725	-0.1085113431259138	-0.09699700133060864
-0.01589376566608529	-0.07620091148317588	-0.1498339389634985	-0.04268601127661634
-0.008765322065908757	0.02927503011069438	-0.03960820280189783	0.02522796594701281
-0.003863676855746053	0.09111955564640178	0.06254894265011425	0.0734009426411617
-0.003293780725172466	0.1197219695956385	0.1073912047535185	0.08350189867129457
-0.03870604000468374	0.1085169572830257	-0.04693405404798691	0.03669909390459421
-0.04151628917442423	0.1166361050235704	-0.06474827413199319	0.05623993476571051
-0.03808898664939118	0.1028715632825616	-0.09937816898333865	0.003751275274643189
-0.000620218715610773	0.04179301159856979	-0.02816038886162725	-0.07943093563382586
0.01132500860231949	0.001955267142252279	0.05871703812660403	-0.1082072501680961
-0.009758523941564902	0.0001127591189365556	0.05202962530002687	-0.04352926096060669
-0.003864356371888722	-0.005559927469650276	-0.02709646697931078	0.03387720868730423
0.005885275532162714	-0.006413979132220996	-0.01136384985006717	0.0273440655577271
0.02110605494250322	-0.0005674262519739136	-0.00468183014537408	-0.02789558118687425
0.003602197380649442	-0.003067010778372198	0.006896907422888826	-0.1160774164182842
-0.001976593003354342	-0.03913467973432595	0.06694389641838863	-0.1556085356226543
-0.04590548659846901	-0.05222212128828119	0.1735531263001994	-0.1184528713688557
0.01462592831314839	-0.05697661531954078	0.08534058595611795	-0.05603347864499479
0.01287125525588025	-0.06091182357498474	0.105312305273482	-9.623454629080644e-05
0.008730459159799872	-0.05151378160130435	0.1068237643620946	-0.008570236502627766
0.05483693110380758	-0.03806672557353523	0.01022171668412226	0.01104069631075369
0.03982888156538986	-0.04011932271909312	-0.04258130606568418	0.02644012639231019
0.03024703983212472	-0.03436071622560293	-0.1171795644075366	0.06751547254965205
-0.01723393487398634	-0.036932884040898	-0.1325891951643561	0.02965908774103672
-0.04261810409810607	-0.07199324806364148	-0.1527135027322766	0.0182188774159738
-0.07217930395866892	-0.06234925053629643	-0.02055074552597322	0.006408259409327747
-0.1045707116539165	-0.06566307873717468	-0.04727723229229831	-0.0563425931144329
-0.06159444765289656	-0.03618538180263699	0.1805371122764324	-0.002583047254563034
-0.05485644682217721	-0.02619564301754062	0.06761279227783815	0.01980685265377887
-0.01774686697422458	-0.01585029028565313	0.08134291511893757	0.06495372930968571
0.01632975925277471	0.04307314287794447	0.1048736538682526	0.07515579371424141
0.005217997934850717	0.0965564008453977	0.0719776356007234	0.05870365280764611
0.02643971862114299	0.1021621842802265	0.1474756447409766	-0.0387088690094395
0.05807171530006058	0.09930798068402419	0.1163703895409537	-0.05157162878435364
0.05160818236525209	0.06773161769107755	0.05210509558362511	-0.0004054239397897073
0.01537649167114738	0.04685130131927968	0.01135385205679571	0.1072114443952183
-0.004794550197370176	0.02122084785015202	0.0252826145673511	0.1680235371896192
0.01475247276640908	0.007689165028420858	0.03568172442926144	0.06721784881047101
-0.009368874277695205	0.007688211562477022	-0.08181394924450136	0.0364671168645178
-0.001727235378924004	0.005792886193954122	-0.1061545325042171	-0.01456495604214169
0.02775305437608031	0.002643850714046833	-0.1089400416008819	0.02565278768735103
0.08240519837059337	0.01423191320392452	-0.09698601863124856	0.1432778328662902
0.04411071885677487	0.001698570458010686	-0.01869712116754424	0.08923150293866051
0.01410362139802469	-0.005046509709044365	0.03640862483125387	-0.03778270332717475
0.01656054699601065	-0.01727710507554447	0.01401461300841772	-0.06743392573437935
-0.01721709385697385	-0.0267255096452516	-0.1845394721252998	0.02801037972017092
-0.02615592897827391	-0.03117866386631434	-0.08619898570816981	0.01512433990402946
-0.007606474242432582	-0.004915783212527058	-0.1277881408711514	-0.0539158362005932
0.01039615231839221	0.001432533358228073	-0.2027217488024197	-0.0993372833078353
0.0357053262299606	0.01617647919347177	-0.07428902870130999	-0.01437717326400751
0.005978757278730169	-0.01287948043782791	0.004716774728915738	0.002134525898070007
-0.01603651484372448	-0.009509281141764423	0.07237100767598566	-0.03114258075142999
0.01631881291448598	0.008402286891040483	0.1032930000739467	0.003859410706188115
0.0099712095891865	-0.007276115226012643	0.4010644797466487	0.02633828886111123
0.01987003898641503	-0.002835848350757642	0.23647502852011	0.01153753791178651
0.04277141518951778	0.001016256355169309	0.04033564738338163	0.02830038205327175
0.03815701522562572	-0.04175631846586408	0.02686922616238195	0.09246029641307496
0.04445303589011542	-0.02397695040535625	-0.03044948031267796	0.1806798981891814
0.02275741660299385	0.001940212791166937	-0.05569814493638148	0.1737177698770857
-0.001593306464131028	0.03066839335197771	-0.09059734043508057	0.08311227186824868
-0.02561156588679176	0.02842104985115465	-0.02451712099286339	-0.07165660708564144
0.03871953041074647	0.03324069118513147	-0.03613951438619197	-0.2269360459056735
0.03791283087867782	0.03819551299568455	-0.01858039431666729	-0.2036235006474247
0.01833016146062858	0.01603634807737511	-0.00526816288827018	0.0273510543428802
-0.005962509308788258	0.01409369031006789	0.05456367807758958	0.08124810113433303
-0.02035301823010419	0.02561057667248798	0.0213841863195701	0.02434099705259784
-0.009608896541661811	0.04132708779548102	0.007159596143339914	-0.07492011826767687
-0.005820510512483485	0.03258781325282829	-0.08626434815661009	-0.1037821610177136
0.002080359274414947	0.008345181785106435	-0.1732522260467465	-0.1226053662397737
-0.02377055682983941	-0.01516043268728605	-0.09261760690520636	-0.07534370383028122
-0.02396066320889726	-0.08751668123006433	0.05379334335926907	-0.1062280489738145
-0.003175288701366673	-0.1047301575596725	0.03600891378964714	-0.1070346177335471
-0.04454524511418512	-0.08885954122610512	-0.05451077120818901	-0.0638476372910718
-0.07459338096054333	-0.05377387239351145	-0.09806672369939051	-0.04928990653523112
-0.02571416711281103	0.01060122350134901	-0.0001418671266454974	-0.02281524859892018
-0.005206250078729035	0.02460935750960618	-0.005975646984194821	0.05264754766115294
0.008053507322472729	0.03770635636816633	0.0289292910026814	0.05223831906546737
-0.01421199541380672	0.04177600440900977	0.05099197251942077	0.04967593485420709
-0.03127736681574719	0.036453060828422	0.03950588096834752	0.0497736248856822
-0.02870713579501703	-0.0195621714817949	-0.004138927659781152	-0.0141518907833994
-0.01218488172275926	-0.071070033083041	-0.05853428996008215	-0.01916906098294757
0.009449264852905219	-0.08171993096760645	-0.1445494826829414	-0.04651216462108355
0.02814151801880405	-0.04862499317864043	-0.1656152537915125	-0.0653258596245941
0.02768495455352327	0.008449256622219162	-0.1750989765779415	-0.03215567129159172
0.01382792810132465	0.05693171452540501	-0.04477839224104949	-0.0023555183985364
-0.007494846662123708	0.05903094019486876	0.1363853189301378	0.04232638821809857
-0.0168059622810499	0.06753879473994211	0.2642251527821203	0.08705835565659625
-0.01937892620453371	0.08018331889791247	0.2444244043707109	0.1491092283604223
-0.01540930806825762	0.08070033071083849	0.2789204102258461	0.1878398604046759
0.009143560488173628	0.07277203057029281	0.1875586408752104	0.1366322290618192
-0.004980664634881574	0.03422673939815675	0.06540342712840504	-0.02945378109069503
-0.03100435330385854	-0.01560607012637729	-0.04188386453984358	-0.07083428794780761
-0.03912103053694398	-0.02918028140738783	-0.0696840681140288	-0.05804480761697235
-0.04036728137421448	-0.03556868842767816	-0.1355971582864886	-0.0751901058341377
-0.01812426478571429	-0.02985307739982354	-0.1394426670185744	-0.01797150265703629
-0.01767905079859017	-0.04421121394810303	-0.03733566723056817	-0.01140788479070816
-0.04081226733821759	-0.04007288079786753	-0.02053459043409947	0.03908619902038041
-0.06829653668557992	-0.04348969521337719	0.1602383468240712	0.06056662749981272
-0.05251637705388747	-0.03288361962751878	0.07466912062295825	0.05183343196687595
-0.008068664624732514	-0.02690372998446926	0.007913416602907323	0.02285338513576242
0.007060765481573543	-0.02608312906425124	0.08297726984047528	0.0212770399147182
0.04307078173694657	-0.005102519249370854	0.007666704315650073	0.09852873934172354
0.0418750199639036	-0.007297596109904467	-0.08958140500694897	0.1342536412339567
0.06852224464508866	-0.02151417177008541	-0.01991028228695072	0.0764676375568818
0.06690164521095739	-0.03352249834749633	-8.510491469668323e-05	0.007076129626936153
0.007668246333717738	-0.02429075378546797	-0.1762905033923976	-0.09064826947248707
-0.00964289423519849	-0.0280717329126311	-0.03749313514943408	-0.102667416115964
-0.02112021760259424	-0.06073195386473565	0.02670304008279208	-0.1146461072145475
-0.01447749741832162	-0.04599976778322432	0.004940442748448732	-0.1411709845728759
0.02551723097342367	0.008404106596978905	-0.017731615584624	-0.0724980637568973
0.01540600322390414	0.02555094471938181	-0.01483194857901072	0.07189057112621759
-0.007078546096778638	0.02750247863852315	-0.01143888323028815	0.06785859619945267
-0.01634316666804114	0.05751259078314464	0.0003681543499174131	-0.0393788164206969
-0.00679696307501702	0.07475809230752689	-0.01607361933165414	-0.06669130344933043
0.02784514866776834	0.06729301166983657	0.0002837384318936311	-0.009281323515212705
0.04314720151614119	0.07141220932036327	-0.03339534664308318	-0.04627448457347359
0.03527167094851845	0.08113846959762734	0.04600585471503579	-0.006457187219955183
0.01357477463799681	0.05985851020781074	0.0469101125149639	0.01491991615216059
0.00184038605901973	0.02705911627228609	0.004533778678581183	0.01503572413803458
0.03049416228726974	0.009863086703408066	-0.08362831754722014	-0.01827777769926851
0.03091104790462294	0.02505981909340542	-0.1201662768297563	-0.01205448138176801
0.02732098240989776	0.03074893243106213	-0.07703077938234605	0.02238606349957153
-0.01996637395906435	0.01590751898809372	0.1011207510759567	0.06946278173200096
-0.02515572255724236	0.01707679097134237	0.07377684353797573	0.04409657099544803
-0.01125604860395776	0.01134182199552505	0.0264795539457415	0.004056770488647984
0.004791494690908297	-0.02210491113847315	0.01381938531667615	-0.02300763915612178
0.03338584393046282	-0.05036780826961645	-0.04021979039006074	-0.01774156785328235
0.04770004717528691	-0.06506552262609699	-0.04565654312873935	-0.006229656058412885
0.0296570892617708	-0.1071054603372444	-0.06634739209672567	-0.02997404317829298
0.0284160417294232	-0.08946281668681715	-0.02387953471788063	-0.03674880952122338
0.02198488124142894	-0.04208509159648507	-0.03249936389433963	-0.002409172831732063
0.01518854471547617	-0.01376888019469081	-0.07635930528616518	0.0002802916403098919
0.00653060689145876	0.01640165459317315	-0.09524391868710649	0.03241364049210818
-0.057261150226102	0.03886901953212926	-0.08654480763452889	0.06781892503591441
-0.06325445574044	0.04092221463915185	-0.07172282805661241	0.06112151551999254
-0.04350097579226579	0.06341417999423075	-0.05940036398572623	0.04005881019685335
-0.02590981175939641	0.06692085551819314	0.1028575342732376	0.06616627305551533
-0.01259682117848499	0.06803192314370358	0.1011162625340992	0.04537883277490825
0.004992751280652273	0.0249991001637423	0.23183878550995	0.008570733879362327
-0.00675403042925691	-7.653994409577433e-05	0.2034946594448953	-0.08870450012180502
-0.05242363843987752	-0.02673701792065112	0.01969818689729966	-0.1488177911951248
-0.01565117679641819	-0.04296772771460577	-0.0629560778029086	-0.1335860682214151
0.01650999771146093	-0.03772646072628665	-0.0379649284811187	-0.0358963352249379
0.04423928117889614	-0.03032639624723877	-0.05272652369525766	0.07119439300427952
0.0188327711375047	-0.06576985373008563	0.0205687303811762	0.08183744103762469
-0.01672967451090945	-0.1178717647546766	0.04011035219562697	-0.04946024645900109
0.005495897632324023	-0.1321887480614771	0.01997612787700978	-0.1013311981184022
0.008145928271399932	-0.09746450623427858	0.03350914339012436	-0.04223303953449354
0.02269705131202261	-0.03389270654745183	0.05766441931719705	0.01112807315511182
0.02123721792387197	-0.0006338821366786852	0.0896402705426409	-0.0389085759253206
0.02192420992617448	0.02398277133683626	0.0493539380289718	0.007706121132602209
0.00142487013848997	0.05865568499762488	-0.08644964375303683	-0.01114483366257101
-0.009149287647538716	0.09681786367793263	-0.1215446016088622	-0.01044039544601564
-0.03059239621688613	0.1012485702767468	-0.05211962808052732	-0.02573525669524215
-0.04118347303802924	0.06239967953644106	0.06362072913514701	0.01018654278043188
-0.004032821032248046	0.01994825622596837	-0.002699549347035708	0.01716089962296205
-0.008222052286115123	-0.02740789682996466	0.0622967558265053	0.04999391085232498
-0.001024935723906467	-0.02478895693958776	0.0696471189717965	0.07203112154670306
-0.01187076021631342	-0.03320966137747874	0.01699549676110853	0.3386808097716556
-0.001711659083307174	-0.01727795534731226	-0.00192293667725023	0.4259003903740606
0.001212761135869267	0.005355483371764057	0.114546977719269	0.359227353521267
-0.01213335366886991	0.01483206942592005	0.09590727962704175	-0.1154303952556867
-0.0296714046070153	0.0006481078881609185	0.06770582365400063	-0.4284519660732902
-0.003131427425030677	-0.03459334412045299	0.1157712552803249	-0.3884485507167616
0.02656983755744401	-0.02540386273972417	0.08210798152430959	-0.1654099194044017
0.05026576914615534	-0.01419866523194295	-0.004516856264028816	-0.05486060159778899
0.05633008204991041	0.01839652689634926	-0.01506560367834963	-0.01669833058739291
0.01505088322226966	0.01145786031379587	-0.03936483154399469	-0.008927487621438666
-0.000950091748476104	0.01681674600522244	-0.156410193348154	-0.04744141267807979
-0.05431438330916519	0.01381230952967293	-0.2185327373399767	-0.09454510860367479
-0.05455096022153145	0.02351905407625934	-0.1510761996508561	-0.004358647691051092
-0.05686099258964071	0.020124722612844	-0.07444531081469136	0.002569628824797644
-0.03844077977908288	0.04387172861835387	-0.002939854182070741	-0.0008602243409377085
-0.04211483793117046	0.015055352566583	0.03534556378439226	0.005823275396399424
0.01428512354613251	-0.01072565882759773	-0.0943068724670722	-0.01682726676071823
0.04608059320905315	-0.06812180792155657	-0.07012143789263017	-0.0006198196109588118
0.03294653001515451	-0.04912231700773564	-0.05173804865194687	0.01141470258275075
0.02359099059534715	-0.009080191221123263	-0.03952653220295536	0.04267563256483675
0.03584017973743693	0.02826588180473596	-0.07155847426490113	0.03233283441997969
0.02194842983528497	0.03510176054157456	-0.0618697026240267	-0.001840709726139652
0.01866315278765454	0.03141579184340161	-0.02581747086236396	0.02594751156375584
0.0221382949474748	0.03095099342489443	0.04815995509406395	0.05610765742891589
0.01779244049199809	0.039154710906501	0.03167205418360719	0.1217213386918126
-0.0108028269968573	0.01655423682344345	0.1439444314037971	0.1465264329772144
-0.002341080445291169	0.002088530211411139	0.1151040558057806	0.1133594217939926
-0.002143671372651208	-0.03330986437750743	0.01622704914502761	0.02780451150218793
0.02732049995702541	-0.01555401856311235	-0.05812701519954653	-0.05150008772440853
0.01163970671017134	-0.01143035386167938	-0.03757000866131408	-0.1302973822898848
0.003268988425202517	0.001480933995532632	0.013152823060903	-0.05509481461249944
-0.0197001053931108	0.004491984673190974	-0.0548783643447127	0.003843097951080088
-0.02082389576427502	0.02415402597455939	-0.04518744834127411	-0.01716334753998503
0.02706537035696833	0.01817886221891067	-0.01603677769597223	-0.02592324013024267
-0.001480537292463692	0.03664048725288389	-0.03175428736652902	-0.02137152204473188
-0.05311523316553295	0.01360644095584629	-0.08355608543381003	0.01123343869439188
-0.05785933446743085	-0.006563866850657405	0.004130039375056185	0.02038676683324087
-0.02304217132182291	-0.03234774500758161	0.1345343933928828	0.01667550177287301
-0.007103280770207583	-0.0521765997194507	0.1209179305195442	0.01392946618133853
0.002673223514568917	-0.0381324794845574	0.1746447004768674	0.06953606955652541
-0.05293143391470401	-0.03791534881919984	0.1051254694735421	0.08032778506345194
-0.06258891744975846	-0.003903557489171052	-0.007702487553830747	0.03047572450249691
-0.03515826898228919	0.03957231832106049	-0.05956336888922886	-0.03939747394628383
-0.003346731122468596	0.05341725466488038	-0.09488193084639886	-0.0777436578259797
0.04300937211842063	0.07998075589330274	-0.1371498585251452	-0.05489714002654998
0.004661831284796107	0.08338110258667356	-0.07061123576784153	0.0125840145899819
0.005728070044482071	0.06889038337630683	0.04316309008618622	0.0144346430677403
0.009592111788799963	0.03760124696433291	0.04756689038041746	0.01929846011191589
0.01544366486931507	0.01797273423185632	0.003066114724831563	0.0002009481965730138
0.04944743580246715	0.001221193339510944	0.04316339718475771	0.002241096069028396
0.0455068782054926	-0.01145343664758774	0.01364559849595296	0.07428384735467992
0.03854175313306256	-0.02722171684843157	-0.04358255068841638	0.1209127851675919
0.01481033932171352	-0.04918350365900381	-0.07635373349379522	0.1269548424093397
0.006982192790289516	-0.06902894667746363	-0.1008617187074592	0.02566359710920376
0.01809671269832204	-0.0669767241902367	-0.07648154698786649	-0.05035486033427457
0.0258632972851406	-0.06433896991398691	0.1989388909770199	-0.1296420894834991
0.01697561201292463	-0.03909115649963712	0.200583355570412	-0.1192039745275057
0.008641618914099437	-0.009387411966800135	0.006138593299952082	-0.05778437289977377
-0.03076852432434481	-0.02298695939431235	-0.01379911893423776	-0.02503149466397629
-0.01832236893654073	-0.01123109244175316	-0.005379058127920155	-0.003945823510072669
-0.02914686069040102	0.0005213683897506121	-0.0561798783167717	-0.01389405555295003
-0.02840690950493118	-0.01149407388356903	-0.03393160011643303	-0.003531166985107516
-0.009480543062464583	-0.0004817578622511526	0.02592452363483318	0.03721588028630273
-0.01560549971427513	0.01602390085466711	0.03310280522051998	0.05151498927275482
0.00176273442719795	0.01750151819544518	0.009510730141688691	0.03791867869005712
0.01114314654675735	0.01692704485177646	-0.03457371472481689	0.04064267913458593
0.02130191752398148	-0.01883910727442319	-0.0284924960081786	0.0520804136148252
0.04676412162724101	-0.04357572884662107	0.00357472204616573	-0.01419668433546434
0.03225875935769833	-0.04219177816801092	0.04879723258232421	-0.01534965878634795
0.05076149748756369	-0.002174683156115125	0.1229518315002912	-0.07630179264066082
0.03529721277229783	0.0284043408678283	0.249626893725977	-0.04746924225584328
-0.01744862737325229	0.02060431985924163	0.1053815450838001	-0.07364898633335201
-0.02870123395547971	-0.009397014078627017	-0.01103905070685534	-0.1890890013291858
-0.04342773884378785	-0.01676515368730956	-0.02540837541539995	-0.1469791981046217
-0.0427084302972801	0.008753794143866827	-0.1102580250815981	-0.139294640586797
-0.0003329233196436521	0.01001411710216603	-0.06126341850794721	-0.1052492164480387
-0.007494934630572146	0.02132373245304657	-0.1292213539590352	-0.02875045888145259
0.00551153908762745	-0.02322323783427882	0.07868418902299686	0.05571729256177109
-0.02281991137131001	-0.07183413281084348	0.0824232617335441	0.1442397978595648
-0.05801390746816581	-0.06078622139636722	0.02492762122192748	0.02433094550062202
-0.0478403623469152	-0.02515425487325813	-0.1416826360530577	0.03305777273444337
-0.007584461356966187	0.03562157090378408	-0.1179544007054967	0.020557298037704
0.01534375357902687	0.04698776477321897	0.04301107900046754	0.06431090745846926
0.04184289302038157	0.03738197959572429	-0.01817450621279262	0.05502443498792876
0.04426674456492607	0.03766153204931755	-0.114457046487365	0.0635416538170291
0.04338809997290674	0.04130298019060859	-0.1423660618679057	0.05919102862627165
0.05558122134281653	0.02702310779366124	-0.1717382809886748	0.03609060433100693
0.05275592458271403	-0.01196887540454776	-0.06680139334864778	0.02055131082194294
0.04913374496295999	-0.009272322187779221	0.1268391776169523	-0.02552102275807986
0.05262807057507995	0.0193794810526417	0.03079281457515795	0.0265628319057424
0.03191790709103245	0.03403530162920189	-0.07854080579588364	0.01633608383402541
0.02884214052306248	0.05494156970430952	-0.103862795242329	-0.02270008058068768
-0.03712947482336241	0.04362157256286076	-0.09753430268643505	-0.09880792935317884
-0.08091912961771089	0.03053169189346422	-0.0199398427283523	-0.05229719248454243
-0.1188812276535225	0.02620743257486841	0.1446998256345966	0.0106739855828735
-0.09037248669948464	0.01123847183204226	0.1409485619304435	0.04970782993283712
-0.009710683405025846	-0.01715181595843546	0.1605811285670043	0.06037772711668174
-0.0130524990432122	-0.07510733231868744	0.2266593359645167	0.1218598596385473
-0.01413897827748112	-0.07749481528189667	0.09543763102602934	0.1553552418275634
-0.03460527639878312	-0.0516467231146822	0.04525667260460385	0.05688325250833496
-0.02038038561925033	-0.03055400382701263	-0.004188699750763423	-0.0007835432486680066
-0.01875029675605428	-0.03248848628999818	-0.03331287763957851	-0.01384609344294059
-0.03324986377575589	-0.006059048358019119	-0.1115956176210409	-0.01177703929340108
-0.04044037776571151	0.02137001175850942	-0.07228154499886984	0.05516986050668368
-0.04307221496445496	0.02785510456993529	-0.1202287350669399	0.1242001901577969
-0.01085916411766492	0.02438287948421582	-0.0286166456474793	0.09968639904420748
0.0236654624683809	0.0456469428989415	0.01896106089851477	-0.02169538256421469
0.02656951514090841	0.04109898606486492	-0.1028487016839535	-0.1846582587607176
0.0298889323937413	0.04009960224434114	-0.04552459221291043	-0.1955575619057267
-0.00231480751611524	0.03453791327850667	-0.008099773018661136	-0.07851715524438309
-0.001254839430356185	0.03377601690642917	0.1011480366200021	-0.04709705466329876
0.02103392407646398	-0.01367836078801007	0.3465564423737758	-0.007588614597424334
0.006657841906562289	-0.03618510593361106	0.0932798640643993	-0.01377483465239861
0.0144986620463493	-0.02780781529270471	-0.002151576218348716	0.04277786364324813
0.05098431462207587	-0.01068623970293923	-0.01934237768958668	0.0161528430901355
0.04937617376831285	-0.02324756615354735	-0.06701918278926944	-0.01566477666806519
0.008215342165896313	-0.07065645144634863	-0.1480063498254776	-0.03808645121696675
0.03096939785095552	-0.04866621848134399	-0.128003967589757	-0.0606427399588022
0.05698963646501582	-0.01215298007001859	-0.09958328884142033	-0.05779001254603262
0.04670661604022477	0.01092146203423403	-0.07235159280936768	-0.03849170583730894
0.03470060522087511	0.04480815594604088	0.01221476936341622	0.05529446124695143
0.008147307430653833	0.05278405541980577	-0.01684971903545503	-0.01394241396470372
-0.02813165361497178	0.02632910019671802	-0.03871720022229624	0.002753377920148414
-0.04723474525704709	0.02813919503711639	-0.06358964885085897	0.0685400001046836
-0.03062848853395092	0.0328642142190352	-0.1044194533536111	0.1182801649474722
-0.0254980395792373	0.02705152398060688	-0.07980004806608358	0.06667947388410611
-0.002364487551521865	-0.0001370938155999266	0.1253807975221012	-0.04533297596665057
-0.02054259382418665	-0.03725709948124769	0.1950533467969247	-0.1260524982183067
-0.01526255438533016	-0.03191437676696467	0.1452887693322881	-0.1508409979636066
-0.01024696772063083	-0.0378318458853437	0.1411671210008994	0.01085528552561751
0.01592584444207638	-0.01725434959143989	0.1825633223958104	0.1071432242113446
0.02014913422026731	-0.02442003410967709	0.08489373151895636	0.1295328853150207
-0.001121503629158165	-0.04645599469862395	0.008560683407426179	0.06362684206594038
-0.02795587383017397	-0.06785618271939522	0.0494336421951403	-0.02966570888852604
0.00747585776591868	-0.07195687993850676	-0.03654305186529876	-0.07116310424406862
0.02587319937428735	-0.06070759822415842	-0.1073303793532726	0.007794401742533904
0.02770155152701252	-0.031888041674426	-0.1219352816031549	0.02458605343744603
0.001521166651965177	-0.003707506089817902	-0.09613986494764779	0.04876043285360702
0.01213794227338041	0.0191869007359982	-0.1224729600722631	0.1274935318372876
0.02500405247136466	0.01504585876052327	-0.1021630748209097	0.1335037138300721
0.008552487430778204	0.02650408504444919	-0.005063334422230006	0.004332916123963801
-0.01996829051100682	0.04846776414238804	0.1385178116261432	-0.1341965707391093
-0.02891962149847147	0.03510044304994549	-0.009403816816062335	-0.1809618549992233
0.003134834589544206	0.07046098467920095	-0.05245678101820265	-0.105689814925954
0.0349579835694565	0.08817246220646281	-0.03742673680260464	-0.04582840025880443
0.03125950351725277	0.03941488679725476	0.007531792441218149	-0.00347517372702315
-0.0007321518677188105	-0.002693596849909139	-0.04805113951532616	-0.06527837027884575
-0.04049409019963887	-0.008600289609483426	-0.005390350862541541	-0.00475383971657345
0.02523120563839466	0.01503255460525825	0.01085390270198121	0.09207042128499515
0.01544195348283689	0.02377591372923041	0.02670449307465306	0.06027445334675675
0.007358232088202384	0.01577956685062497	0.01950070089456092	0.007704855403009849
0.01358210036644803	-0.004340045172217193	0.07398983882815488	-0.1331015268592391
-0.007768846020896215	-0.05213719611168305	0.1520446838510688	-0.07317533537329876
-0.03906713025981452	-0.05748335965501949	0.1005723835315998	0.02834127824001352
-0.05084216438361276	-0.001267651132117483	-0.0631658587373502	0.03101955210856636
-0.07863421674340376	0.01156751410822862	-0.0722789859466685	-0.002093553596118471
-0.0603711534503193	0.04371441191790872	-0.0910738268183043	-0.008814368649591425
0.01776580432076359	0.04818909058366187	-0.006558123984863947	-0.01948028312349332
0.0323177317913042	0.03334466434563289	-0.008034267872748829	-0.01907271535751681
0.0618166511897766	0.02830445850083946	0.03296537634926069	0.04191877768181075
0.04084530143025404	0.01643603755851814	0.157396994867232	0.07244345057147725
0.009782092798565194	-0.0104640266518131	0.04646554635669039	0.1260063216942499
-0.00536777981099676	-0.005266793658540127	-0.04267477893081299	0.1006597884421928
-0.0361772589850753	-0.01596649820386251	-0.05254984799480404	-0.008981543758104341
-0.02844771099487171	-0.0217004438867163	-0.09129548622461789	-0.07881636455266137
