0.01177639149506231	0.04965233196466759	-0.01022349452234078	0.002047659461679153
0.01742212198601786	0.02962452702718633	-0.02001064446175475	0.0002493398130493299
0.03319837839830056	0.03127236434619776	-0.0116528195951737	0.005099536177064376
0.02318742213790132	0.0008343940032427142	-0.001437033365901383	-0.002568029297834451
0.01816140047838771	-0.007070661244949986	-0.003320481509973182	-0.005799636339904943
-0.0007112466884308846	-0.03146404506046224	-0.009579972980672582	-0.009532407368709098
-0.01750135721321561	-0.02521893304329345	0.001264689787000102	-0.0006071665441775498
-0.01022585723963924	-0.03426402792305983	0.0005292487472948312	0.003549959054867166
-0.01062784614151856	-0.04073489468399422	0.00268098831117701	0.01424741466733048
0.001639531998227812	0.02991337539003796	0.007977196159827065	-0.003814580852981849
0.01817615765246182	0.05847456963081601	0.01059940834605483	-0.01171148062712908
0.01653514691211483	0.04565438401381484	0.002701694167080243	-0.005350166191043895
0.03592997727086442	0.04254051858721736	-0.001721462039910447	0.00467897718387248
0.02957281821316619	0.03142066911303297	-0.0005576862644917831	0.007321508495194027
0.01113830453483261	0.0189476016514578	-0.001295440342904241	0.00823387239579676
0.007899374416336263	-0.0111384310231727	-0.004234393010635574	0.006377648034269406
-0.003615796715541649	-0.05143778719010022	-0.01049632240368725	-0.002315163962225663
-0.01633550520579046	-0.05517021435049273	-0.008905023714352298	-0.003110511655365595
-0.0183614815361764	-0.008320635411455246	-6.783681213791678e-05	0.002060552700286952
-0.04274705780377268	-0.006232460024570331	0.009176126242407222	0.001342519054755193
-0.03295786420137575	0.00825132586714798	0.01598464613379626	-0.01937445100225144
0.0009726865508986034	0.02949322229189803	0.01694284084319751	-0.02451219401788929
0.01089672071666163	0.0169134177303313	0.01089172749003782	-0.01624546781342165
-0.0004666418693977217	0.01051445760248798	0.004909796511401291	-0.0144213881449769
0.003843519321673676	0.02125840244741412	0.001168064308165371	-0.003196164354717678
0.02224454019191632	0.0226537215276604	0.007673687218895163	0.01330431510656519
0.02470295356421199	0.001965124485822246	0.01097100238633855	0.002702211760645843
0.006540142295355043	0.01916516275756216	0.0135017376893876	-0.001441221935618172
0.0001001652564273303	0.07262346567365656	0.004578505889018936	0.004005787687506356
-0.004923150931952559	0.09813091124013744	-0.005054161597556223	-0.003055171781720854
-0.01406061343152534	0.06897799757027016	0.001673064752374501	-0.00939752566015257
-0.007024957849845531	0.04108042599075939	0.000624253162080425	-0.008170901253264778
0.006102387831577434	0.01510428200414608	0.002127477481643312	-0.004658282770265703
0.01497223801899125	0.006780532663178567	-0.004386645217714062	-0.01170615087363584
0.01572077376988174	-0.02736598651456617	0.001442294683921929	-0.005474234729656596
0.01209284955721922	-0.03876169696027458	0.0008455555702333631	0.002191406588819508
0.005430684873165937	-0.04362497277479129	-0.01824011238876888	0.004451223922061359
-0.002564480685446938	-0.04388797212786254	-0.03676446532764756	0.005047589514973628
-0.02624643625478262	-0.06353146459747963	-0.02219078371263927	0.006827204956090694
-0.02814731414584167	-0.06489091952736695	-0.01091308601597016	0.005285896482095333
-0.01597259694559297	-0.04020384219808031	-0.007635583774218901	0.000244280384888396
0.006501802310205052	-0.01625807576040992	-0.007420745904504594	-0.0006121655644693962
0.0640863174711051	-0.00111145348639098	0.005998390390337778	-0.005355152031615548
0.04789546700625591	-0.0004204537043258913	-0.01340418996424229	-0.00677717313706393
0.01419122030509243	-0.01190961352853399	-0.008662103008088201	-0.003925532311095318
-0.002928986197718647	-0.03490240784065766	-0.008053947206760883	-0.002859200841086206
0.001817682340521296	-0.0444031020059888	-0.02918922778313376	-0.002048371647630864
-0.007803287990748833	-0.01180391538705608	-0.03687579524685301	0.007008045899621517
-0.007335064174222272	0.06257370317339377	-0.03079656066904646	-0.0004260451247245069
0.01436921176236004	0.04967699684423636	-0.009948243651748666	-0.005390530504297214
0.007026015983561934	0.02310309656594735	0.02497558173778999	0.02982677269518907
-0.003329444320083754	0.01636899909243741	0.02275861693764876	0.04017829076992831
-0.01886076184480776	0.04811474136225376	0.05753268123134726	0.02992640422963546
-0.01124495634595195	0.04443068731652629	0.07298160097681479	0.01696576943804932
-0.0137959654590233	0.02044170170538876	0.05182208832629886	0.002706360003047922
-0.01351453808349517	-0.0007183766009707185	0.03465677692019911	-0.02036970516350842
-0.01635971572283506	-0.005562654266652197	0.03002797672615789	-0.02348256201873863
-0.006538806399585895	-0.001181622292579843	0.02775055723349848	-0.01481343707428604
-0.006010221055077776	-0.008014744412103056	0.0117609522768062	-0.008898944121159621
0.007231694428102384	0.03336281749217208	0.001940510672577062	-0.00326773990809337
0.01889185702112013	0.03856429289587848	0.007301602053584715	0.0003580663840153686
0.01692076042458114	0.009174150388207633	0.01483772613175939	0.004796826709543028
0.02203944329229041	0.0007460048960903357	-0.008305674384658344	0.003168004438411097
0.01439504181737067	-0.04173697301958942	-0.00716010580548373	-0.01021849736350055
-0.002549315828024572	-0.07646290171459551	-0.01180506705224894	-0.01376035445038355
-0.004774033403857529	-0.07656105377980681	-0.01455500436782733	-0.00776166287361906
-0.02952793853194345	-0.06756346852879286	-0.007818628298286542	0.001979530860816193
-0.03351111139450221	-0.05767169258689737	-0.001791791025949411	0.01675982641218771
-0.06197942453071389	-0.06978570244192871	-0.012918036744465	0.01478128529688932
-0.0572299974726347	-0.05252350987641569	-0.004543587791079425	-0.001545486816323848
-0.03805081610506254	-0.02763427684129388	-0.01222798165153536	-0.01164261926622322
-0.0194766395756267	-0.004738633031826751	-0.02545770171333951	-0.009887163631033896
0.02041279818199421	0.03134207955127734	-0.03418776285157762	-0.008214564223231063
0.03112489034546101	0.03340098029275711	-0.02669933458470133	-0.01339603268678176
0.01252114939000334	0.04758719444123784	-0.01844412296060799	-0.0001393287296905839
-0.0009242542704078452	0.05415662316532133	-0.0146944745909158	0.01032118841508632
-0.009660464378133046	0.0274281634483822	-0.01516693879387657	0.004068312828059445
-0.01498869894242749	0.02194305496948345	-0.009213124934434595	0.004700177239950762
-0.009072439494878513	0.01602534310265872	-0.005430141805459432	0.01411901567431239
-0.006921900034114534	-0.0001822486816268194	-0.0001260820327707706	0.02097274351356902
-0.00866940346559919	-0.04494911644035828	0.004472890714170572	-0.001889456976242528
-0.01106952760697454	-0.05701789917389194	0.009241454994856332	-0.007248809432906666
-0.009234426668927249	-0.06565295962733018	0.009550730842553569	-0.007170971010827921
0.002539012434025414	-0.05979122440938796	-0.002005128815682023	-0.002054020369692483
0.003244540630588055	-0.03860715679434066	0.0007380068116789401	-0.003170720177359818
0.01782649580684728	0.004389941179337931	0.0001459797601525585	-0.002196812676982257
0.03529842347379587	0.05310169608351752	-0.001949366918882685	-0.002861762465244671
0.0380412849006373	0.04603823784043337	-0.002024701212396457	-0.007094361162616207
0.02577068081843444	-0.004626760109095387	-0.00159315468980105	-0.001893954246767518
0.0157271181081751	-0.02925491987688728	0.01237982403392688	0.003837919446438921
0.008831769240595427	-0.01050864424797033	0.009705545498793275	0.002920955772322602
0.008287988594948214	0.01753136484384857	0.01006629393648306	0.007704178988540107
0.02092725790534633	0.05203981670049899	0.01201021056725446	0.00806668183145375
0.02521850484155173	0.0640316150384838	0.01473699598037577	0.01580150468823467
-0.03578925432990377	0.1201532801635326	0.003026289495656757	0.003572079049386467
-0.01328651469432983	0.1082969066390309	0.003423327925905791	0.0004611438012723778
-0.004152534168011342	0.03452120574539225	0.01427259808472236	0.004666730549527522
0.001256839944436193	-0.01536532993985015	0.0129215834128838	0.007306801283180821
0.01477013509196591	-0.01814414830600613	0.001400331588187659	0.003869543178411536
0.01111189490911483	0.006615145695467311	-0.01854437167040602	-0.004914745078959716
0.002728829827685298	0.0004783170732115329	-0.03061848743350175	-0.01383984125633229
-0.009428380503200738	0.007696643467674779	-0.01213931529273033	-0.009523125564399403
0.0009157362302997553	-0.006302720656147319	-0.001839114852390729	0.00339835740063355
-0.007731311417247699	-0.04145210258635254	0.005661793322889791	0.01365085543360436
-0.003552903738983108	-0.03886778518029398	0.009582959678506949	0.01153513877567462
-0.008066179938011557	-0.02552158210532475	3.513105695825248e-05	-0.001482864739682077
-0.005788309515852505	-0.000482259330099489	-0.003442637661974886	-0.01178377758627794
-0.006569960655775948	0.01773718611124895	-0.005083748411485367	-0.01103181197658794
-0.003364393075269792	0.04001328990146139	-0.01367778581133875	-0.004363614117827585
0.01822479124558021	0.06532334327877179	-0.01810576822387854	-0.009855452742002512
0.01454198881819811	0.03450437946603346	-0.01101510640413861	0.00689914412479246
0.008316768617002269	-0.01257507925280578	-0.001507627285238731	0.02468398647527086
-0.0004950217729581513	-0.05636200338564101	-0.01833210355655059	0.01333722785761401
0.007494028573850499	-0.05215803050658573	-0.02044859300766175	0.009589454216962199
0.01160727733726996	-0.04344754223860825	-0.0009695608042295758	0.01901818555429307
0.004466263672657636	-0.03386451590152808	0.003551083211711738	0.01131267838097514
-0.007251808662799122	0.01595335626288353	0.002718308800566815	-0.008794263734304168
-0.000733094939178511	0.03110537638765903	0.01061130148428749	-0.01982161324872369
-0.001890451945080747	-0.01545229080090091	0.02462644098926355	-0.03189424320766713
0.01671594282153046	-0.008517345634308476	0.02122358210270195	-0.0323128542611362
0.03665240665147894	0.0004614357249107962	0.02150829692166787	-0.02749349028902713
0.01614300907213796	0.001694727687314205	0.0264725091417278	-0.0169111660590562
0.02077445892558359	0.02318736784126251	0.02724558329704916	-0.005568526636520837
0.02232136374187203	0.042603794256169	0.03149857795607981	0.00377746102397426
0.01257707277644969	0.01962003582360494	0.0112086945384715	0.00726264047716434
-0.004864431454620589	0.01010195276329488	-0.005708225381766537	0.005978277979380412
-0.004550536369468085	-0.01077780195450499	-0.003782623944041863	0.00540324120417273
0.001513335035166915	-0.02292815019528774	-0.003355517776109452	0.006532684697095933
-0.01918582707730487	-0.02504635840287285	-0.001635138414615564	0.02185455150089131
-0.04694201748622445	-0.03661249994435415	-0.001541534548779098	0.02342803065483727
-0.03389346831597519	0.01690426382866884	-0.01269786308061988	0.01484344566412452
-0.02228433566072663	0.01612292613466113	-0.0200593442064106	0.004665050359139108
-0.007124548265788492	-0.01591060303171954	-0.01464319426236614	-0.009473876049850059
0.0113766747109074	-0.02867266275665208	-0.01091848557513289	-0.0247688944426807
0.02057471686329552	-0.005891555941693195	-0.001339585273302192	-0.0209684583795932
-0.0135742589662922	0.003302026933701831	0.001562243478600783	-0.01723073287452786
-0.03866048659389006	-0.01510945967391818	0.01750569969897297	-0.01823511630151614
-0.03346328039497514	-0.03248268301261569	0.03218700847344545	-0.005625941852595935
-0.02917613495467647	-0.02108549082953582	0.02526051019386391	-0.0007891838958205145
-0.02955304805952895	-0.01044051786051183	0.0140273170696103	0.02909060104484423
-0.01090076491566475	0.00312796101854244	0.0145836707643295	0.0288321145307248
0.01679208157752823	0.01352503167245926	0.008770397486974627	0.01330953576823897
0.04570261955914524	0.04032154335715502	-0.0002645155316634007	-0.007143462665740797
0.02612199516303661	0.03532755045735987	-0.006652739590016831	-0.02601952847746868
0.03102744409517987	0.02784758868258541	-0.006280900400236462	-0.008032012257084175
0.01811393681332414	-0.0114579288148576	0.00498755116442553	0.0001484395955746935
-0.005949347161098436	-0.0382461551551844	-0.0005407911572070509	0.01291980375454523
0.001255221615409217	-0.0339462890087965	-0.01411754887029688	0.007721293704352472
0.01676615891078796	-0.04262001268872145	-0.02017310435470077	0.001927807373931148
0.009386843766135512	-0.03956343842557345	-0.0255615259562229	0.00623308216907763
-0.03760094986053338	-0.05994616554264594	-0.02586296363084847	6.662374807018618e-05
-0.02095670715876747	-0.04311435180123905	-0.02117679324519098	0.003347825030021805
0.001536895488405679	0.003379833404305938	-0.01465181126000339	0.003584366830346687
0.004092913106566561	0.06303987559986605	-0.02108388993972826	-0.0006507907756140815
-0.005958546501637894	0.09307073134723658	-0.01897265799715508	-0.003943121264613805
-0.02063671034290573	0.06622359264974169	-0.01389213725394945	-0.008912538802054762
-0.03752274138765333	0.02946415710379726	-0.0100961571021199	-0.006415050512716913
-0.03043766244833055	0.03813242142471132	-0.0135400887601837	-0.004222909031140749
0.009040127928137862	0.03647892128521107	-0.01011203863258841	0.004582982452297223
0.01529027912935017	4.924243313626882e-05	0.001348937837045189	0.004532713698247932
0.001240119493337405	-0.03259608003121849	0.008504893485487584	0.008372301716693497
0.003215252010839676	-0.02764506740259308	0.01779829793610738	0.004781985009576396
-0.0007533288443686049	-0.007832809887295927	0.01239138996649895	0.001299878082256048
-0.01519062614701737	0.002478794582925245	0.004740652728194544	-0.004425337952383164
-0.01620631175086014	-0.009966194774810738	0.001883333763321483	-0.001836392045671608
-0.009599652953158525	-0.04201236176029514	-0.004209797904394307	-0.011080550520609
-0.01233724260818382	-0.0379539227628287	-0.009470892824547224	-0.003514971803233302
-0.001573347864795763	-0.01956968208994646	-0.007025928148667979	0.004027419256286631
0.01311307752218522	-0.01139377083889037	-0.007131739102680424	0.004987693787880848
0.03695644036043554	-0.01711713423190582	-0.005568126424145309	0.01422991671976176
0.03301424291851481	-0.03651689136784917	-0.01384146741455362	0.01223031149125624
0.01462066955625148	-0.02666946963491653	-0.00752825884343542	0.006919330260750544
0.00550072734143609	-0.02472280440263087	-0.003259049962364382	0.001001851592270463
0.004468451876879745	-0.001955915147250306	0.00221216233721645	-0.0001205684699535693
0.009244732791055432	0.02718964440111311	0.007224198606873402	0.003668858410795674
0.01294690098566957	0.04471610232549018	0.0118950134242566	0.006946719903497846
0.01650368781371414	0.07975608562198287	0.01403298196515481	-2.733980859292407e-05
0.01576240104388501	0.08064562129579946	0.00172529148943598	-0.01430758468395331
0.0167359555287008	0.04992138304222683	-0.01081283568755238	-0.01816450719742025
0.006812440246504693	0.02379687083610089	0.005056119296091645	-0.001829663192252358
-0.007450430336581444	-0.000699593022667226	0.0155457899408258	0.004140219297662682
-0.004578531719247715	-0.02671516040588978	-0.002091154633895711	0.004899787142038171
-0.005366188956249028	-0.02535471703908532	-0.01083221482016718	0.004599316081894685
-0.03501187832317906	0.002881168664685757	0.002007709245336441	0.002771666650681722
-0.02805718689629084	-0.005279819144029059	0.008935991553890379	-0.008878347138935738
-0.01944236791079819	0.004971334039943941	0.006160815934038188	-0.008132009834452201
-0.0196953947981134	0.007685968081051047	0.009268904839217123	-0.004773090098434652
-0.02386857278326833	0.004631568727322294	0.01140565402054551	0.002307400837476303
-0.01400438813642243	0.005219024550274736	0.005804168605992491	0.001933181016926797
-0.003742914907545198	-0.008721975787886466	0.003506325801557794	-0.004296240261001279
0.01052962811930516	-0.01475816975200789	0.005803314449660008	0.004097925800069757
0.007905361838256769	-0.0331590666443007	0.008504648144975856	0.008212175106144548
0.008242441472512812	-0.01953921762425071	0.02198896833156497	0.006845800286058739
0.005652127303343746	-0.01674076603910107	0.01663741079578214	0.0007678392987954257
0.008647651518558721	0.00902368012738807	0.006150315047950747	-0.01026670228385722
0.01200977430262002	-0.01368741311606714	0.004938000414007367	-0.01973798389130061
0.005534146123571587	-0.03031198263142561	0.01108010642563425	-0.01718119894676209
0.001916677011313197	-0.01484065041134693	0.01216394562890449	-0.01750288924687921
0.003988279173459941	0.004988116122140206	0.01483348451250959	-0.00258204402297611
0.02456781868207561	0.02846540705553011	0.01936667686694356	0.01461645863123656
0.0290055342690991	0.0271332621808767	0.008675743018868443	0.01803065992287607
0.02734139697836336	0.003913988451086561	0.01094498581970797	0.003875013460845627
0.01410094266831369	0.0009385404462846032	-0.003525207122354279	-0.0005583450991953377
0.01275833255964657	-0.004410158374166221	-0.01615576480805546	0.001527115807923748
-0.00759049722118868	0.001263056419743803	-0.01730430000589928	0.005343553000072957
0.0052727561587775	-0.01352816934992056	-0.01916258358495631	0.006993885879501
-0.001245884106769651	-0.01522747414501235	-0.007078830732519965	0.01378318942035105
-0.03845052591942668	-0.01243647441301588	-0.005294128201095138	0.001813284464203416
-0.03656932278695876	-0.01890920144545982	-0.01733072982385618	0.001619171718072621
0.009296215969728168	-0.002353868742615581	-0.01137984907804652	-0.009993256354256077
0.007347440438211774	0.007292023274955124	0.008302334974244487	-0.0198877585960543
0.001119582372796385	0.03139573440165705	-0.009628231421927104	-0.00794462539369971
-0.0009500335859149657	0.02406194968790108	-0.01450900188837021	0.002383642865283754
0.007101384005906422	0.04401653774084335	0.01081421595505757	0.01495936361445863
0.0005423631646767383	0.03601649665373584	0.02833568386652535	0.01990315245752502
0.01076842585888328	0.04587747634307448	0.02561029760186467	0.008827135240749236
0.00341220346430807	0.03237687982738958	0.01654242385021238	-0.001843065325244677
-0.01724612234830843	-0.0005401491119386684	-0.003788364512931085	-0.006891100371755072
-0.007282546646486363	-0.02289751766958974	-0.01197540276484576	-0.01045831123067884
0.005147171901046417	-0.02623450348250284	0.001351147350160086	0.006705971903825129
0.0002882901565694837	-0.009152949661384937	0.004722203198237014	0.0008142171955213461
-0.003557669682318082	-0.004129328295935351	0.006149944721381769	-0.01518827167428391
-0.00442270786057326	0.004347325286212443	0.01043538907365332	-0.01593234794187185
-0.005245448699667322	0.003889135281759778	0.002164963135268359	-0.005426263148510648
-0.00530152628516477	-0.02117502677496634	-0.002874307050962796	-0.008399083961836072
-0.007876612088156029	-0.04839964510776981	-0.007811970916460534	-0.004332489313034137
0.003136603614865591	-0.04266962321302564	-0.004373119484494777	0.008184756128472267
0.02389132868942623	-0.050789455198488	-0.01810705564914718	0.01297554449716146
0.03541229496603319	-0.04913604104795873	-0.02493843213881638	0.00948184598850821
0.01957370212763277	-0.05425931380223193	-0.02169605805336121	0.007023271659380649
0.01291410966218027	-0.03059448779631377	-0.02342474805091533	0.006026120152657969
-0.00196893732318366	-0.00223057268705509	-0.01600779952567599	0.001824086885653289
-0.003709548745209042	0.0303745932273973	-0.01041835117021701	0.002272492303961243
-0.008578822054726556	0.06487387409490286	0.01289295847974591	-0.0001551356457544585
-0.01864875855007504	0.09004647511708673	0.03659464611032966	-0.0007383810101983541
-0.04475459937244386	0.03840142607048511	0.03396718949838382	0.002293301052740223
-0.03719462793054654	-0.01503145830751096	0.008661317469431721	0.002202067531985763
-0.03035541166641288	-0.04846177165213714	-0.0105894286552303	-0.006628266075424929
-0.02480257693052374	-0.07950761553577716	-0.01732198313014613	-0.005170986122438386
-0.0181515636464546	-0.05926036318004078	-0.008468414329964025	0.003714483028761012
-0.01827678361020486	-0.01430732009850401	-0.01570125988690352	-0.006267070087346594
-0.006307558984427892	0.02312929958745374	-0.02007058313083924	-0.0149299852194559
0.03104845640252383	0.03640030332767136	-0.02083411635456041	-0.0008914934115296902
0.05748738211999881	0.02343778019414777	-0.01615518452763211	0.003857431407251273
0.03656335604458678	0.0281146128039839	-0.006358954218155754	-0.009474253667584856
0.01393780045818433	0.01550147345060732	0.0006868466258261352	-0.003517677537889651
-0.001053831893949607	0.01256314507675563	-0.008667655984588908	-0.003186863034613896
0.009972369389847727	0.008631955027721964	-0.004533596123381911	0.000916702975191798
0.007533212703198711	-0.002213289916777177	-0.005881547964192403	0.0003775770528374043
-0.00575935435209905	-0.001725980330998418	-0.002150676581291683	0.005395364011380268
0.01845398772013177	0.008673723432356414	-0.00864513788443318	0.003792268880397471
0.01663354242351955	-0.009326766472671805	0.00493684144293101	0.009105380406058301
0.008947035530819179	-0.00170449826189662	0.01153849802834971	0.004045303092981845
-0.01158478593421219	-0.001917186150138921	0.00985372965952612	0.006538844807826069
-0.01544185158362841	0.004362102314355157	-0.006417055422094221	0.004791236229581092
0.008403946979046124	0.02893657515278988	-0.007800956543729217	-0.001710291528302738
0.006508777946113982	0.03418392422956539	0.00087549802944927	-0.0002913336121933501
-0.003044673950800676	-0.002829429604276349	0.009731139653252853	0.00232119890587168
0.006238820243838184	-0.01106675003749946	0.007274657429176239	0.01093037643968603
0.01237493154593455	0.01126364257951459	0.001862962378104603	0.006361247055098521
0.01549491498472804	0.04381751980161411	-7.302261266825763e-05	0.001223888623485266
0.02085955736249281	0.02137985987504033	0.004561483589146124	-0.01375455901852732
0.0003967451531570855	0.02885768759439816	0.00378380571066476	-0.0101885770304212
-0.04003358501727505	0.05299614920874268	0.008350544092089025	-0.004450726100131543
-0.02967684625467691	0.07331403743582117	0.01093365143624885	-0.0006915688679825793
-0.01717680339070744	0.05575497134405448	0.007502918806597993	-0.001399800469713991
-0.03018633066097581	0.01126688508619507	0.004885830324866101	-0.00291928733739705
-0.02263335514109475	-0.02607478862368619	0.005134101716509104	-0.005245120336292943
-0.02592175196080785	-0.0262694991885914	0.009254530565358366	-0.001748596847168429
-0.07038162260734343	-0.02719269984526969	0.008000797194161684	0.01698244400105341
-0.05848328542968597	-0.0181370838479499	0.00824398260483762	0.01951762970828853
-0.01264835242843675	-0.007725356648415855	-0.0009957343973027439	0.01225333426047706
-0.01867529686175959	-0.02693888085332824	0.002109857114190801	0.008499271036196899
-0.01033946135528981	-0.02793304305218083	0.001231313848906573	-0.0003871536794910638
0.01002459199743357	-0.04504126208236807	-0.007766186397646704	-0.006324797621325018
0.006560847429654559	-0.04809440496669044	-0.01220373698040749	-0.00710238805386034
0.009437039733734713	-0.03555107837789909	-0.006120218102365712	0.008730145067633751
0.0100497035393423	-0.04755535583144028	0.001959172723321771	0.02351658908844087
0.01139586170379061	-0.05135447116780429	0.001898574531151294	0.01547120881614224
0.01878642515809623	-0.02782018031439092	-0.002044442211663348	-0.001956204137155788
0.01295996149441882	-0.01070978808204774	-0.002927905773695865	-0.01554599813132068
0.01001695433965255	-0.01971445483637962	0.004740320095481853	-0.03461967098836854
0.0254869582892844	-0.02610037981206657	0.003491266377455395	-0.03128755992462087
0.02530009698646615	0.01265632526434892	0.007749293929032598	-0.02199240359066356
0.02724357221029845	0.004807507017396774	0.008391111258834787	-0.01286208670648155
0.03728661841216626	-0.003905644630688954	0.00255265541979301	-0.008457445574968971
0.03312906412676631	0.005235642026053545	-0.002320345452719352	-0.003092986429477352
0.03058465145247773	0.00997890904536702	-0.00514205438018095	0.001026622745093295
0.02220604797173197	0.009759505846353099	-0.01228744677003219	0.00859897207775482
0.01001457607963652	-0.0004967639594181423	-0.01434987823128534	0.01882960049447653
-0.001090849336422637	-0.01310261543661215	-0.007648606476653494	0.0233744848773244
-0.002073980644386852	-0.01348212788900812	-0.005195367113071621	0.01624563491621855
-0.004825482152713887	-0.02608173296846958	0.01998483784120795	0.005294249912013813
-0.001187181121362459	-0.01286958892374548	0.03211175383729595	-0.01065177000330523
0.0007368077406952733	0.01157855942126058	0.02022228848783678	-0.02056433253265455
0.003896547311086825	0.02661715488627996	0.01320321848947457	-0.01101927454295036
0.0009367707833939986	0.03432540999119283	0.004812504364239597	0.006278257411387302
0.01624674351477326	0.05341336957771043	-0.006543423166781983	-0.002196960668379013
0.03384834042179076	0.04984050093735473	-0.009863447991370558	-0.0009585920206830813
0.03649484094736904	0.05589328762012941	-0.007272437651267698	-0.01220013932409862
0.03841207309519296	0.0542472039712971	-0.02790195928808072	-0.0173710995884075
0.02578413494857683	-0.003193917901371758	-0.02633192133698648	0.004693783179937335
0.006557105465767636	-0.0563865670665586	-0.01194558816587642	0.02217273463275895
0.003526833445177225	-0.05763166016696659	-0.01322450580196141	0.01179253631042013
-0.009496474459299376	-0.02517035676322178	-0.0063006573428687	-0.00946077128043761
-0.03410407969132858	0.01851303657208674	0.003929035640746004	-0.006641372796349357
-0.01607301526267856	0.05708950672515842	0.04663249121541023	0.008325526547778881
-0.04227541563311218	0.02641903450303696	0.06272753656666348	0.00225472236670941
-0.07636858624680186	0.006863140160935044	0.04727729785341626	0.000947431336568007
-0.05150201433279745	0.01094945081131748	0.02565393057462446	-0.001535811757358099
-0.03367285928006166	-0.0008019028167183407	0.009082408646797029	-0.0003815666505256503
-0.02706890966471014	0.002000814588487016	-0.004049791200058521	-0.009020596958670898
-0.0283889140635101	-0.008060618559544621	-0.001580107888416011	-0.01275367974554786
-0.02132715533479736	-0.008753546659383731	-0.009371553374798962	-0.008159142271405559
-0.01321004063116622	-0.007818736810022771	-0.008882564915757186	-0.0003865665086705428
-0.009810820725886269	-0.02677806313059266	-0.01926727429545735	0.005659360342560457
0.005964503858842177	-0.01200729952645885	-0.02343705080300991	0.007265277373964111
0.01868180709285251	-0.005250455740866787	-0.02575532442407411	0.0006408596679895651
0.01929249685668485	0.01049498703723913	-0.02865191589307081	0.002090787116091205
0.01341632327787266	0.01975328395935614	-0.01547182989413422	0.01130630608364253
0.0004581734762622681	0.02347763960538366	-0.01290747539402156	0.01554850384334805
0.0003378382765309028	-0.005256331191336224	-0.01100922759200992	0.01759163715560591
0.006782564669852113	0.007757310685030509	-0.01012350235240216	0.01137136479280259
0.03016176286108586	0.02333410881643736	-0.007329606572127527	0.005877772238187942
0.0327407982601049	0.005174126115797898	0.002936346057266359	0.0014794470187919
0.03370008750251313	-0.02442162853469579	2.051567171757279e-05	-0.01724898345082293
0.01929102552514087	-0.02390517297769689	-0.009483613844065224	-0.01724343252070461
0.01368799963037371	-0.03244457945095341	0.002176034167512536	-0.005249523942814267
0.002031342406999341	-0.03835582233797399	0.002487104928291213	-0.00870366452323787
-0.01855392391014041	-0.02940423620818438	0.0002391353187240121	-0.006148815583029139
0.003845536002081053	-0.02000644680170216	-0.001228499732102189	-0.005427930314837391
0.02071722395255621	-0.005168642611735554	0.003479475798576126	0.008523897437156655
0.004680708288099203	-0.03279384781163793	-0.00791945739363017	-0.000104495898904239
0.007190086657192283	-0.003552268264455841	-0.01004636376638196	-0.002965669939326899
0.007703064246640664	0.0420132153843128	0.001382166326709952	0.01061788240876417
-0.01531893585071467	0.01832283341614591	0.008123858063705877	0.02036843196231
-0.02764432491503244	0.0009452015368345609	0.006354428699974215	0.02519179712148279
-0.04162907726274066	-0.008375889798339057	0.004996572220896694	0.01611398280757803
-0.0188974674193732	-0.01428421955017485	-0.005493143431528844	0.009691837168382704
-0.02122658601103248	-0.02563787489388844	-0.004158854163482135	0.005164194126105612
-0.01500786471746592	-0.01897506050653301	-0.002979858434798431	-0.0005331908489841142
-0.005154327270720072	-0.01570207969636054	0.001875197349394313	-0.003372567522208095
0.01464983770898561	0.01434835198532054	0.005220189165768538	-0.0009918886775811921
0.007725729416293054	0.0292990024580243	0.004782199304620513	0.007357630912696952
0.02062445464692152	0.06636302620193799	-0.004222668222052497	-0.006169391831240341
0.01759499890521634	0.05957774670681974	-0.001484590976385918	-0.02410422159328916
0.0181524792925746	0.03481080675091658	0.0003731338375638037	-0.0247693621074012
0.02268098230128776	0.03847934286438842	0.008132671014354132	-0.01730316597264114
0.02391876379109102	0.04270237459996518	0.007108962915150025	-0.0169987590725601
0.02181900631431927	0.03603676534886062	0.004715401732204551	-0.01282164825737009
0.01416366950143929	-0.005783315503779687	0.0004224669386172096	-0.008072021571563583
-0.0008107674946838335	-0.03118475099734164	-0.006201423792019435	0.0005455624137329095
-0.0254736386294525	-0.02670254022529058	0.004954052184744512	0.01390559000544025
-0.05294632685833695	-0.02794973071852387	-0.0003240420895553491	0.01207949251204941
-0.05430611456680863	-0.03528736643217408	-0.00242778267529296	0.001436457983904812
-0.05952632135959542	-0.02150336758675191	0.003411497745031134	0.003166036222318147
-0.03279854875679761	0.001434705642353288	0.007169153194032585	0.0009981164536097646
-0.005112434591055679	0.005871842468942574	0.01041166558477677	0.006860649506975247
0.01791117662066878	0.007187152633325457	0.005142411119941271	0.005951201466041084
0.0069032136605432	0.008941867264018214	-0.001149445534188459	0.008190811240046954
0.008160092964983903	0.0207519835394686	-0.005366053866761266	-0.002411832354407019
0.001191592239637067	0.02604371560358321	-0.009622462865138154	-0.007941578331660605
-0.018802511824171	0.00714966064734432	-0.0004759260474146462	-0.005518642167500826
0.007032160847104991	0.01584227092759929	0.005813103221061623	0.01246395558120214
0.0314309603243184	-0.01236729414121302	0.003445877510238302	0.002407263122447751
0.01928390049172453	-0.02568126791388554	0.007378469627668981	0.004252795283485448
0.01250763523781976	-0.0245428860008176	0.006181393686481469	0.0005548838685342178
0.01372552787420435	-0.05550377714201836	-0.005547909914111722	-0.01232338833501761
0.02022970042896738	-0.05199189056583253	-0.01672769122144575	-0.01786849499540854
0.01595897662006016	-0.04504387014014253	-0.01895686300909227	-0.01546138030310532
0.01507035226813739	-0.03921114596496786	-0.009391160938751411	-0.01218520371792576
0.00262129130150548	-0.0103019198159479	-0.01050005686470626	-0.007427680374979958
-0.003199869991546119	0.02988765605600252	-0.003451262209264814	-0.00507138408649455
-0.001709144528944419	0.0192294540639006	0.01196100559686797	0.007954208985204839
0.002120320176619679	0.01032133044924941	0.00665356647973918	0.009967721279613212
0.0114947734655677	0.004619114282590818	0.0007909120191541479	0.01357388532625761
-0.03053025167076759	-0.001232422933858423	0.01084823724609284	0.01664907500648144
-0.04044692853674347	0.004915453128006049	0.03217458658296291	0.01059737452885595
-0.02855021032982206	0.003883838388055884	0.05107727443259693	0.009464881127734505
-0.0225973883801356	0.01073312426084913	0.04585650646880621	0.003775637666635967
-0.01712478600261262	0.01241837266196101	0.01682328357962118	0.00454701848731304
0.007777743713540817	0.04160047309048517	-0.00765078766394884	0.003005690367186947
0.01045266779102316	0.03609350282143837	-0.02043241415414972	0.009549357207834999
0.02876071107269674	0.003410494760747569	-0.01931042658235872	0.005933823803150979
0.01754029609619297	0.0008950367505076078	-0.002552181891752438	-0.004818243856187536
0.01328893250809127	-0.00869679654896619	0.002311163927992535	-0.0006669118164655955
0.002182030589900385	-0.02608824012767813	-0.005583917077239447	-0.00260416694297513
0.002587757851975979	-0.02644361749815403	-0.0103077380939023	-0.00939300125509095
0.00415413400753922	-0.01723052770826117	-0.001133100947646028	-0.003356183344832745
-0.0007195181587575865	-0.006621669144820357	0.009977336240531114	-0.002498281010106937
0.001085373145909304	-0.01970062904331825	0.002660517557252939	0.002680843373831983
0.009285623361883065	-0.009929311627435869	0.00137822382478637	-0.0004204921286094716
0.0007333552485440241	0.01255077193343924	0.004973980741929354	0.0002452069163936023
0.001059461740218563	0.0348302892306167	0.0006200374151587477	-0.005829853566241519
0.009509030122169363	0.07536844495775821	-0.01762587631237291	0.0002107490925364822
0.01055450056452505	-0.04034535459332404	-0.0296832403309576	-0.005030223426557303
0.01017425699414566	-0.01705764390262176	-0.02611313647911236	-0.006434900740430884
0.002746838981584005	-0.009377048430943113	-0.02223637603941952	-0.004179770976077885
0.006029704158952614	-0.022138448775688	-0.01375804663869285	-0.006685071972927199
0.00842259371291826	-0.0244124843845539	-0.005109859481035635	0.002182514837864123
0.007703703104690198	-0.02656862767409735	-0.002993782284447106	0.008197283175707459
0.00639728728969272	0.01200112482304027	0.0001350442382368269	0.01307734261765432
0.0009734194911573381	0.03474560804560157	0.01273529047453315	0.007273108241416659
0.003433596754958771	0.06326635887018947	0.004059369601799518	-0.005270424077971466
0.01116898089243541	0.04996104941201722	0.001776389053370696	0.000357021798204135
0.01282406219016693	0.04103236390024564	-0.007048789679044602	-0.01015222975703594
0.009056717984099816	0.01965558947802785	-0.01616515597143499	-0.01629233041516812
0.006254761257352105	0.01049581790629219	-0.0117392586666138	-0.007361152017091595
0.004932069550294639	-0.01094239093631381	-0.01135976753218883	-0.01219865226638291
0.01694390937031037	-0.004307458039427094	-0.0108782744802181	-0.009085367492151381
0.004664705851418892	-0.001273370901971087	-0.01302086021260734	-0.007443607687259808
-0.01986913040945704	0.008903809831379384	-0.01089536016452056	-0.004835670115487306
-0.05222405409364102	0.002181185141401233	0.01932316569571596	0.01149582996470786
-0.07389771793498805	-0.01537013273815557	0.02167969510934916	0.01120813402332243
-0.04694775326954378	0.002359222179866155	0.01144191471918066	0.00411297739908166
-0.008828240817341727	-0.02692555353699641	0.00283690548858514	0.000368196036407251
-0.01970688597309506	-0.05410858159866936	0.006520487438224428	0.002522471246396475
-0.02293791430705993	-0.04282391688370893	-0.005129362341613533	0.006394482574169288
-0.01793792639719449	-0.02469132630857792	-0.001988415368417022	0.00904205977857838
0.006199023908575083	9.750152541930699e-05	0.007651496228469268	0.03624292007136786
0.02128182903375377	0.005168391090795855	0.007848631312536132	0.0299721870218604
0.02809194441671119	0.02639774670344811	0.002196902935236208	0.007106492096663985
0.01137402967610277	0.01877535977236314	-0.000962887823520501	-0.002697633042060598
0.004118584702033281	0.01134961316890012	0.007502954350898568	-0.01187451375049754
0.01208836949637301	0.006872411200980828	0.005771981025744653	-0.03057858277450849
0.01344814112816302	-0.007706739723300482	-0.002486464583558929	-0.03104622134384285
0.04267114694097194	-0.03457874493527946	0.00186699814955029	-0.01394967184467532
0.05743241960798651	-0.03736122266325753	0.01195240899373184	-0.005998348708580242
0.03840954084101862	-0.05617340926163936	0.008757990054490241	-0.007441847122523757
0.01196329148721096	-0.0648908598393565	0.01334598136486164	0.0008832753762880602
-0.01375328207572295	-0.07977967474138387	0.01517396492403117	0.002694924652841046
-0.0006230138119214385	-0.05711883644977387	0.02133511166709064	0.002172004115597061
-0.03251063866499117	-0.01814788850406182	0.004986394533330386	-0.001909165232772282
-0.03174392702331257	0.02523766213743238	-0.005178910166732992	-0.001225093165107817
-0.04872980881721069	0.0570356115930435	-0.02016690823396673	-0.001667694933368538
-0.07142730477828985	0.06768090551992108	-0.02126241382128121	-0.000375357911882619
-0.0296073470305955	0.06619650223484846	-0.01254750297549627	0.003913710264367724
0.0220681091508502	0.07910945486684685	-0.006584073178564178	0.0004623600862506052
0.02236172405304355	0.04908536898040297	-0.002315201653075949	-0.00356043692205257
0.02232912721778351	0.03331481465772583	-0.002169951260117288	-0.003190901562052574
0.01990735856429021	0.001406373161180301	0.004331136059681548	0.001472710015831965
0.006190947368093521	-0.01068048549012407	0.008325363429611755	-0.002409422793023553
0.005319370766000884	-0.01437304542044895	0.009338736179884425	0.007019956425405458
-0.004504349924700742	-0.001281644298037619	0.01161904737681499	0.007680581356901404
-0.001502381356017656	0.01316849641727615	0.01132871492613707	0.0004387019968063641
0.0007757768511159515	0.01969125088026162	0.009953296543083729	0.001390554270101296
0.002402377453168035	0.009121570270414927	0.007439460654148288	0.002994079318238993
0.003149766773055409	0.01603728940284205	0.002079041899792395	0.00381268430658937
0.002321379838051661	0.005872505942178656	-0.001820553280136401	0.002829277240326432
0.006105207364289136	0.02376339591421852	0.0002623802172118477	0.006783447829056593
0.01148933864987134	0.02752725157979883	-0.002702545971160143	0.005588846202913202
0.01850032192321011	0.02357550884026948	-0.0004260204886680776	0.004002367026228672
0.02118165007687982	0.01985710457805063	0.005512716582170457	0.001201594189713665
0.01157132614969025	-0.006914082587189287	0.00371506322088879	0.002760956615480517
-0.0005573351812033533	-0.03988389448163491	-0.002507666822463875	-0.001937361820953472
0.002387788380054556	-0.06271595112815849	-0.001851722516712791	0.002250015534392666
0.006746423796785414	-0.06595550162565338	-0.001938503270512124	-0.003852479090097415
0.0001486238740484269	-0.0755572291507958	-0.01405187274046966	-0.006185876203320718
0.001028179919326059	-0.06447741171864328	-0.03196068456138736	0.002408243313049717
-0.0008674129979679839	-0.05475128034409189	-0.04353061382560189	0.003563253193522138
-0.007320971165720526	-0.01684274132124777	-0.04426827384291335	-0.003955735552244983
-0.004630671547046949	0.04866417748123289	-0.04495644004422716	-0.004415005260765991
-0.01012540173904602	0.07122108793430462	-0.04234771907055188	0.0002985539512635022
-0.01339509641020063	0.07582651135322438	-0.01826721535541602	0.005993037894175277
-0.005791475350687385	0.1030996913936916	0.01166760140856481	0.01265262388884657
-0.004342172304719665	0.04079139820902599	0.0329374515655738	0.008804616855712811
-0.005852222372223806	-0.01772909944419011	0.03027744202991883	0.005507746205513275
0.02365839247725265	-0.03505065622722588	0.04119790827202605	0.01751469789081265
0.01828401260344366	-0.06244547536246926	0.03297791258719951	0.01190682088738669
-0.007154728616810452	-0.05076536867365567	0.02800263989511206	0.004917292150471364
-0.007111383158416452	-0.01200071618614924	0.02826939079328184	0.005287434078552249
-0.01075382737745383	0.001787807790444449	0.01945031401868188	0.005536318496913478
-0.006689521538666759	0.01042610616960683	0.02086727527956662	0.001578878182906811
-0.01611971399024417	0.000770380971089647	0.005595178461836795	-0.01008482033434505
-0.02961634998984256	0.007841637075624247	0.003532322798617082	-0.01227902744174236
-0.04046790411186791	0.0227309494100034	0.001830249664809559	-0.01482540434891102
-0.01563435302514688	0.03013004626625912	0.007714418490964445	-0.01001511517606524
-0.009846917174064882	-0.005181205247224653	0.005690862524890824	-0.01669235007072907
0.00184635250735898	0.0002616017694249737	-0.003612575833718332	-0.01344701640450453
0.008983829459418594	0.002787735656577527	-0.003489398809458898	-0.00775428678278274
0.004803727498632267	-0.02119046540420663	0.00118134913258165	0.007663920855346988
0.01223464061418445	-0.02243771248696892	-0.007060063434991317	0.002406204271372413
0.01649073939732669	-0.01423090900509206	-0.004833494161736545	-0.001286899638286101
0.004263027270355781	-0.02092988391034316	-0.006641382554961366	-0.003550255527908946
0.0007916832617126894	-0.0275398525052825	-0.004850753860401314	0.004277709028244096
-0.001586315912855848	-0.01740165111930796	-0.0006288958529602157	0.01597621497773809
0.008309320625768885	0.0113001642374744	-0.007333027855595376	0.02414495595372675
0.00777207462283593	0.002376634575004617	-0.01673780744910793	0.0165847315271126
0.01570229725176317	0.002293277527388891	-0.01252231035994262	0.01227140402871637
0.01243005726090974	-0.0002882767697378209	-0.01410680768190691	-0.006351091675930058
-0.0007445036182888399	-0.01758914261133973	-0.01120481971323577	-0.01368039499969718
-0.003996083004525706	-0.007052376787724472	-0.007745210218181905	-0.01298435424388971
0.002130517398288895	-0.001495150032565212	-0.004704120470335838	-0.02462923283282777
0.002571428123884641	0.02827792296587526	0.00232510722669183	-0.02109849432738318
-0.001533042827624538	0.04709124751118526	-0.0006987407519079718	-0.01464719797649956
-0.004168502530414432	0.02398911700104894	-0.006823313307860413	-0.01208650308076818
-0.007632955672189123	0.007752533477403975	-0.006031187779325669	-0.01102607784044844
-0.007259000456117386	-0.002946041934108129	-0.01310531917322389	-0.01113552720718527
0.002795770879182989	-0.004540167034184878	-0.004677415989301001	-0.01404067479144475
0.0006615472169496543	0.01324483028644564	-0.00220181363497372	-0.01016480352551079
0.005242764883517778	0.007422696949624479	0.006866719576985154	0.01020777607265336
0.008674908275999801	0.01552527388974213	0.01618741347400888	0.01098690895132411
0.02677495384138532	0.01574645098230256	0.01366258552882614	0.01176775067117102
0.0249623455972413	-0.02211604345454639	0.01177030443262714	0.004765323115728505
0.02241491009859035	-0.02249498788318983	0.006822651239082515	-0.00450873561744889
0.0174220288784672	-0.03414050195430018	-0.0009775052332500025	-0.001565053982710114
0.005855817454711365	-0.03320357894183439	0.002718662476789575	-0.003828282708199037
0.0003533064794651602	0.01665175208335297	0.01443828289273021	0.001696287424864761
-0.004802652041386059	0.02445702867083334	0.01026887236275711	0.004281945707001157
-0.01475862683055639	0.02496870557131694	-0.005984630284922876	0.01696191109651124
-0.02834688184990227	0.01214523176950665	-0.0150620378024105	0.01059066670188199
-0.04418932993905697	0.00404343964948974	-0.01643618810814391	0.01391825614347618
-0.02469651158168975	-0.03146966662565168	-0.02020765848669006	0.011660266214514
-0.01183429671526552	-0.02725140063654556	-0.00395219985789132	0.01503222473604632
-0.008706716608743061	-0.0219339916567319	0.006108993973321646	0.003474992281712174
0.0278087110761243	-0.005141329239328322	0.00518241051988052	-0.003513813682067622
0.0471529954544231	0.01323407695160991	0.008915407538618469	-0.01208624539010205
0.02121337074370484	0.03054125592458513	-0.0005336403029541833	-0.008901086923333601
-0.003236792036704101	0.03270755591868629	-0.008088206121927436	-0.007067548897102123
0.00689065730453441	0.02924367881364567	-5.760884397384146e-05	-0.01049531800776114
0.001157366073448366	0.02320796345364852	0.01755230200925652	0.007900849973808053
0.02209005113330538	-0.01823372702337668	-0.005721212297947872	0.00623091782063266
0.02110531851563659	-0.03939088912828288	-0.01610499919868056	0.008315935375504587
-0.02208985588316658	-0.02488547694947468	-0.008531588016035273	0.01544386028282421
-0.06936805881802821	-0.02425934588278725	-0.001648347610231802	0.01169214882082815
-0.04134362686316698	0.001732515518880313	0.01316604108100906	0.009031412387018439
-0.01462700135824361	0.02266241869868654	0.01616214182783897	0.007356649468169912
-0.01924060331973065	0.03212527442880777	0.03542686067972449	0.005590977964732349
-0.01557162985129946	0.007470295627698237	0.03858873914185076	-0.004793706784932648
-0.02485354824744127	0.03678429975649994	0.01352520544455469	-0.01432022406353964
-0.03461199290848609	0.007564051746680061	0.00246613932280256	-0.006686975210911018
-0.03396978339133807	-0.02666223565131001	-0.006680258899455454	-0.009272774551166079
-0.01012745530770041	-0.01500390991868294	-0.0104902365472723	-0.004656938042399482
0.01484489973228512	0.001892990928894746	-0.01479381433622974	-0.006514155886516329
0.02155498621435918	0.01930876092082885	-0.01962009202465657	-0.0122909576296997
0.01247558077732926	0.03123604429467326	-0.01437056429633331	-0.01203079375630654
0.007027270670979692	0.0461345232854815	-0.007975958098017431	-0.009946397635622455
0.01900562431988219	0.04266487006211091	0.01554621890054526	0.005133136649162985
0.02617675438754129	0.02506579453125506	0.01159593985540404	0.006295833623412164
0.02448488502384419	0.01100869509677698	-0.001172051504116761	-0.0007416021234557165
0.01955894697738886	0.009663207586556186	-0.02193811756108808	-0.01402430531642013
0.02019395729451132	0.004057253337478578	-0.02000537811827946	-0.009571972919371164
0.01876422970372587	-0.03831119464904945	0.004470424852119674	-0.0001707023086835243
0.0118970943866705	-0.06865490113438011	0.02389085665471646	0.001331141393890034
0.01829745467488949	-0.05741560364358565	0.005142004524655322	0.001327186330024237
0.01651684523218447	-0.03668135942461797	-0.01408798956151798	0.001314589042306845
0.004350751437385572	-0.03227398310720068	-0.002810301386807179	-0.001460971895369051
-0.0028501647824718	-0.0377524276351121	-0.006689194313648259	-0.007598511892719823
0.001823820736988196	-0.002019499421458802	-0.0007082586499081853	-0.002264849909052534
-0.01013722852878013	0.02343595198500089	0.0006239273583450108	0.01132574283406219
-0.02481874158658475	0.004590147502878639	-0.003487904851710031	0.01086192961724911
-0.03848788026201017	-0.0382946610925166	-0.004120304933796035	0.008343723201040773
-0.007258979006902273	-0.04285090338983691	-0.008163095599506493	-0.0006065537086469383
-0.001865020792900448	-0.02398971608274268	-0.009200006425100918	0.008153760070826806
0.01378156026170271	-0.008488056565876324	-0.009082192768075313	0.008000752267391182
0.0282257342333264	0.04615860129429586	-0.01695324321914684	0.004040388446337724
0.03245242034915936	0.05431125404891365	-0.01080169163652606	-0.0003903343336498903
0.02041103103149602	0.03801554481015502	-0.008406516893598334	0.005485354538341813
-0.012412726798813	0.008593706976375277	-0.002936891745887215	0.01606708005652153
-0.02367098446248793	0.01274501175372478	-0.0005578587496812851	0.02365729055613458
-0.01746987266440109	0.002715284068796823	0.007437583413056512	0.02753449630672866
-0.003467865758024355	0.005142913626987985	0.008785054885065849	0.02052988273143511
0.01654813546066029	-0.01382862978496136	0.002421881621514212	0.004843439780349859
0.01057785364890236	-0.01115973720399052	-0.0007699656980977163	-0.008346947231304592
0.001474475936591278	-0.02720752463836542	0.004247323835609621	-0.0274093579640257
-0.005495126844437479	-0.03776502369381828	0.009830990826521403	-0.03137916152842252
-0.002826234092398536	-0.03232826025610998	0.01883819549851078	-0.001446695202669025
-0.001955772030375735	-0.03170039498763586	0.01649479435272606	0.002655535912663468
-0.001513056152451356	-0.03856777363797578	0.007482064867771027	-0.006193972898100414
-0.001604262755255704	-0.02974532863288858	0.001296469744611526	-0.007851879150725372
0.002362870366799679	-0.0275670431027799	-0.004911010634680737	0.004198516828158663
-0.005493155936685136	-0.01438926602497619	-0.003601059475842822	0.002419425906881043
-0.002828894606440695	0.01251385423444081	-4.688639717614716e-06	0.001191905320797892
0.01138097312671491	0.03312943416052769	-0.003273435123619935	0.001918889062211675
0.008599683289107355	0.04082623231402904	-0.005374006219698708	-0.003748866793977886
0.003480556429895989	0.03971730192929895	0.008483254495339713	-0.02320997966287898
-0.01322942724425545	0.02791974180388513	0.002696403956954294	-0.02474514252647289
-0.01420550881071202	0.01676836382384593	-0.009083631757631418	-0.01645357648678297
-0.006973867039642888	0.004847200208970098	-0.008187254255273065	-0.007530355635357749
0.00842760007906224	-0.005854245659518816	0.005644566292013824	0.002620136712580851
0.006530740796029314	-0.01098099722558923	0.01695868811385937	0.008206097245438476
0.008642505045161722	-0.004277982053440148	0.01024363374206263	0.01026566057933801
0.0001029724990548269	0.003945742347999888	0.004344331310987833	0.002790837555689844
-0.01492393521247281	0.01413238373592134	-0.00732570662268975	-0.003906595428310415
-0.02073066225074247	0.01225047428897375	-0.006428125754119387	-0.000863696680730579
-0.01338775097977093	-0.006401766297016266	-0.002185521606756118	-0.01466474207714868
-0.001574312471521966	-0.02314634965488674	-0.01063844334580884	-0.006566250810404484
0.002192966289224359	-0.02203465040943658	-0.006306384985844379	-0.001849228795216302
-0.002613617326789538	-0.0106101227271591	0.003190200535304026	-0.002085814304374474
-0.004307129263452629	-0.004749175368440707	0.01666300095655875	0.01600591157088418
-0.006912610793113286	-0.0005548842868243075	0.02252913487934039	0.03067731542475932
-0.007131570476653053	0.01958455552066459	0.01536113097400173	0.03361443546346273
-0.01877686196443284	0.02756130179012467	1.020223949539115e-05	0.01210617873209326
-0.022997342306763	0.02394094422492386	-0.005182467764378729	-0.003413318759629583
0.002893729017244257	0.02226165568165143	-0.001953204777281251	-0.01547892032904965
0.006726013824305753	0.0006910718301448612	-0.003647629506807141	-0.007331210209611433
0.01353375832234187	-0.003398782115334968	-0.01038177526649806	-0.006962358028715338
0.05049816455012129	0.01679538611085337	-0.009280199928032111	-0.007517138403319614
0.06297453529703585	0.03633959150525896	-0.007218079931348233	-0.00574791051609929
0.04561867731904812	0.0498516127893573	-0.01919982156815907	-0.0001745539372216138
0.02936860465480951	0.08084932338324663	-0.01000288149335179	0.01055611361028776
0.02729065216026464	0.06670154379811317	0.01695870434173843	0.01067838163772765
0.02977326759456759	0.03616707967393171	0.03136115716029498	0.01460235033596244
0.01313112488670783	-0.004655217065473343	0.01120105275583753	0.01273821738775387
-0.01755741928317798	-0.05444493110252752	0.007206288496924442	0.009390014745761651
-0.02959030101437618	-0.08920251856381058	0.003110353015585226	-0.01358168643146877
-0.04933625083163879	-0.07777793393152348	0.01175995797458548	-0.02159611603462379
-0.04329098254731576	-0.06073554731857546	-0.0132453626842633	-0.00984711621562665
-0.02160423305233062	-0.04313753396757757	-0.02036839609627123	-0.01179345608492203
0.003486087232227568	0.0365921013756121	-0.006958535936799324	-0.004285955920924632
0.01378195867576146	0.05405256047437014	0.007887862460453114	-0.005668220419247001
0.008055500392326269	0.05091320753129191	0.008418666454506498	-0.006434522342705798
-0.001257405164195226	0.04237687582909994	-0.00408812649404523	-0.01083225729221456
-0.03635966703138712	0.02376379314946123	-0.003601471024659334	-0.01045257407644677
-0.02818470910680048	0.02653706452130715	0.013164334848696	0.003415649576420853
-0.03271997360374843	0.04778901359400446	0.008857231107438055	0.003003038678983166
-0.05029385221430385	0.05028496597135326	0.0006529072304804167	0.005021994343238054
-0.03110342695740973	0.03550525889910401	-0.01568445404824522	-0.001993058546404118
-0.008885481691774857	0.0184877328539288	-0.01107032377651038	0.004102235809547626
-0.005461256940782509	-0.009032824860519097	-0.01213980429675405	0.003758899501539806
-0.005410473892302027	-0.01678025124927301	-0.0101371213329847	0.001581187662680713
0.01690615220810917	-0.02201490253411938	-0.01024207340556388	0.006807562297726038
0.04224830332739839	0.007093241975228312	-0.01111671537556763	0.01464744088097831
0.0301356412598762	0.03719111659587335	-0.01687049647841895	0.003046316965667496
0.02233932099728507	0.02846203212201123	-0.00701442186934534	0.007935601073704864
0.009414763109008331	0.004383072144521912	0.0008768830493658237	0.01148663488261866
-0.006616712272549154	-0.02353637858423104	0.003000606545851096	-0.01555295946298428
-0.03496682140271386	-0.03768822254148563	-0.002082180942589603	-0.02104367198180495
-0.0394679137432017	-0.05756939940547985	-0.004508286406789114	-0.009308083284947394
-0.04401386552957018	-0.05831826579442558	0.01460745348656604	0.004323310790649589
-0.01882663246806264	-0.05159507416430863	0.0148509610152198	0.01276770244427862
-0.007347762806058714	-0.05030402392091891	0.006166287696061932	0.008923812257083155
0.02136635082449551	-0.02839976170074205	0.00860371837166712	-0.0008330543266548773
0.01647694980086915	-0.03099024021810714	0.008853759013744592	-0.0125635076091691
-0.005147163078577083	-0.04485135020713766	-0.001080663095058321	-0.007190793271972145
-0.0003778259991030941	-0.03641186112054918	6.433827029972663e-05	0.001706860173520547
0.02003575988702076	-0.008307892895276591	0.00278949076995056	0.006204846787005569
0.02839508347988265	0.004912650477506249	-0.002059648804765654	-0.0008059106310728715
0.01120940597435067	-0.02834569364475151	-0.0007899582237444947	0.001065092028603318
-0.001401265253334523	-0.05929298705873037	-0.0001805138934492987	-0.0004816999393752586
0.005720883049140273	-0.0580677109266295	0.0005745207232420324	-4.455910135140162e-05
0.007451144205944216	-0.0540497384865596	-0.006518632479441561	0.002730587993421684
0.005038368407741419	-0.03315577080850079	-0.003722231427976618	0.005978547555250775
0.02513866555966015	0.02598709080391235	-0.004861466021756889	0.004671790731992019
0.03151293195695474	0.03084248956200843	-0.006153155826281767	-0.0004519260333988811
0.001113425219212159	-0.01156735125099992	-0.01786633002613981	0.004119013929488945
0.007165991036378002	-0.03071034017405037	-0.0187737267890165	0.009871359466377254
0.01387082914530325	-0.04543552329458037	-0.01427509211594716	0.01121616210978572
0.02066412535773931	-0.0304101125780099	-0.006779136563243479	0.01930178933115404
0.0237592418036028	-0.005830044057728913	0.002057462904850119	0.01223702820114059
0.007826906160199678	0.01406535336290867	0.01455652041662971	0.004944526126641017
0.01078070637196571	0.008744776375783787	0.02789812273754327	0.0065649044475024
0.01318529261557335	-0.01122508121638547	0.02334282414564006	0.008805169500434666
0.01640858592814365	-0.05949302902295601	0.02224232151169749	0.008984502276579395
-0.01300343475206544	-0.05054459011328898	0.01993452022564418	0.002756458699113476
0.02172466532120015	-0.03157081853966715	0.009620601025960475	-0.01433468017343615
0.0240975310308312	-0.01128230396895053	-0.003756924446103371	-0.01913732327676065
-0.01699642543526653	0.02444148346061301	-0.01931739906841674	-0.02094538058481496
-0.03260139542765807	0.0790578406453737	-0.01784567219773821	-0.01462446815815309
-0.01645132468198003	0.08333378044108343	-0.01110587990309213	-0.01415399062222642
-0.008279442902100241	0.09773612042007618	-0.007167988844821166	-0.009624174052068973
-0.01193956827036862	0.09450113479136593	-0.007341183519197813	-0.01287185808307783
-0.01644072579070996	0.07687677992343481	0.002065076317420128	-0.01107122118405825
-0.004668714516646489	0.06769351475777531	0.009006626043750738	-0.003846383022808065
-0.01694235716109101	0.05710473709913307	0.0113040048670861	0.004567641099944603
-0.0159605149890679	0.07757228144578482	0.009514064951785691	0.008508876011672772
-0.01576009658266745	0.0858098592640951	0.006402169195410937	0.009815173192368264
-0.01722641836270641	0.05688029811747521	-0.002405718980690952	0.01172598241392325
-0.01432355177034024	0.024922547903744	-0.009088904589453892	0.009183389652836724
-2.199126210657557e-05	-0.004717864525635517	-0.004603753263629424	0.005171456480961755
0.007207701207915338	-0.02601581548503283	-0.003482095396104668	-0.0001667335711164762
0.009901887681064583	-0.04619475365630913	-0.004867100690498339	-0.004828594824629825
0.02423521056978721	-0.03711464672884677	-0.005072554186726713	-0.005784848599933316
0.01331367108592452	-0.004361221709499749	-0.01443228679923187	-0.01186717494442881
0.009431077678842142	-0.02587171273078087	-0.005456746912843887	-0.009588539969853482
-0.005803979655004487	-0.02328009093951827	-0.001979099282519096	-0.006749692556783667
-0.0132638285696301	-0.003776559852504394	0.002901275322028018	-0.0002053491937508207
0.003419435351529094	0.02376544816571637	-0.00293643880823417	0.008074272719024889
0.0155106318490549	0.01226576027965677	-0.0004515832173440733	0.0004933788379277761
0.0003014554388205539	-0.0003197400869398109	-0.0007198679667735419	-0.003927797301774052
0.010319629969376	0.0001741450887407757	-0.0045816235478243	0.0007288775568324272
0.0104323453214524	-0.02567439015050872	-0.007064103735876243	0.002779702451117467
0.009904743145962614	-0.0363023189689272	0.007135776733632881	5.342449431970204e-05
0.0100083648041963	-0.01646428323549804	0.01243570538268969	0.005306123208455347
0.002641449148564703	0.01309371095547673	0.004572637001411743	-0.002914464388373491
0.0006213759918306013	0.0327054021648236	0.006525073914490659	-0.007313715329082149
-0.03585967102472846	0.03331802904861029	0.000435230885715521	-0.008991375992819628
-0.04288283323825695	0.003335043773453434	0.004068377597509399	-0.004337840239062909
-0.01846982904118381	-0.01522704630305577	0.001218749822855688	-0.003643629833797547
-0.002172882063685808	-0.02026894748280752	0.01304258620882946	-0.00150758774078836
0.02237336869933471	-0.0122778521423174	0.0299143132426751	-0.003545534031390702
0.01599687909911293	-0.01987798409965869	0.0161909290737706	-0.0005879286549523144
0.007199889866066069	-0.04265037742746664	-0.01025344656642814	0.001017626504660461
0.01792562420839136	-0.04918710784182016	-0.00912336468323346	0.001425185085796398
0.01604379845615302	-0.0365840472139338	-0.004780777806688617	0.003490948707116623
0.0122551578941179	0.002470218263592079	0.01238655245011619	0.009909359840527895
-0.0006257669478010972	0.04656838071630726	0.01561374060294946	0.01294990203326817
-0.01442890723802109	0.0442419061664138	0.01405958078966548	0.009624547591887207
-0.01621295393223225	0.03215067369403433	0.01157044186353265	0.01162408362030201
-0.01789037849166401	0.05802413318146441	0.007876212338039408	0.005193765878073755
-0.01831821875735636	0.02385085439248554	-0.0006298101067621139	-0.008466930597348966
-0.01592136710733131	-0.008742284005516007	-0.008836713779670892	-0.01208993601066368
-0.005406906133368304	-0.01230592939439747	-0.01597113626239277	-0.006951859872508402
0.003404453209909801	-0.001195930953533608	-0.01712917493740495	-0.005238650965805892
0.006292143118932423	0.004021064066588428	-0.01370715225118618	-0.002606574482155169
0.01550444528852039	-0.003752846952985753	-0.01146293927279326	-0.004626871107025193
-0.002738274374294804	-0.009913321647737056	-0.008674475343594045	-0.00172350959853518
-0.002678647999093572	-0.0310953062439978	-0.008514977100329869	0.004774374960482322
-0.009777388383495966	-0.02849846586950578	-0.007970525833224206	-0.001828289607156238
-0.0027829712083466	-0.02711581082118768	-0.00679861816209893	0.004192337675004989
-0.001135763112265487	-0.03721396755001374	0.001629595887551446	-0.002378491804703825
-0.006028410812236042	-0.03855768591191567	0.01909652573931655	-0.00527116626619005
-0.01384588921786926	-0.03385510110085295	0.005879491105779312	-0.005895347674086237
-0.01347780368001219	-0.03026607145091484	6.360198349624426e-05	0.001936082199704901
-0.01089057888312462	-0.0396902909758619	-0.003763165506304068	0.002840097728756556
0.00129879318941176	-0.03436992239052453	0.003203100490353375	0.007097736090290421
0.02151886488164864	-0.04713734457832956	0.006668300387148234	0.007728580732585415
0.02617859494951665	-0.06219127618837979	0.006568149923390994	-0.004156507682402334
0.001383653696811078	-0.03885161195548115	0.006462938354340739	0.008678219086909978
-0.007237273870064483	-0.009926517271291853	0.005862312661063931	0.01330686869764383
-0.002297977560949739	-0.0009641824109401042	-0.003022436636971586	0.01164060331823475
-0.004007663473387308	0.03749826691898538	-0.006006948301052075	-0.005116156353966536
-0.003564410314719631	0.05432327126596012	-0.01755775282711538	0.002867216232342328
-0.01766073569407696	0.0634774265098192	-0.01491798670143548	0.005532629032191058
-0.03154886528571226	0.04902351815723363	-0.005154652814336197	0.003725629123012304
-0.0222225504715752	0.03038741785281407	0.02096815845642893	0.00982431414684201
0.01923510273612321	0.02364253158690223	0.01869335163304092	0.0154719432583498
0.02229227882236313	0.03891542042174273	0.005521660522603314	0.0176004713991296
0.03094932171917451	0.0224555149894704	-0.0016322953665991	0.007225429487814066
0.05042351765316405	0.001361516132619992	-0.008823704801800527	0.01159556715476756
0.0104566827800612	-0.03158297267013328	-0.008139111809050402	0.01591976668592187
0.0002921291394733675	-0.04960080895458348	-0.0008742554069893167	-0.008119389998428614
-0.03772089022892819	-0.03335589988822982	-0.005762432683151982	-0.005084567803914901
-0.03558165090213214	-0.03353682071216783	-0.0130947699401818	0.002615881318269028
-0.01528409042888782	-0.0308859877862726	0.0002913876214512947	-0.006887659738229493
0.003920818383223164	-0.02292297054678441	-0.008113002214191603	-0.02357486374430822
0.002923040110566016	-0.01061232443627514	-0.008020041395119781	-0.02250632758068605
-0.003741086846710141	0.008844702254702014	-0.006755508283801107	-0.01260610391461284
0.00826432072933481	0.02281134869410346	-0.003068775065655562	5.713789829128086e-05
0.00350347541365841	0.01473899108386789	-0.00725732003319899	0.01334409280942851
-0.02032827692077789	0.04201645685291253	-0.02342155349807182	0.005820226663381193
-0.01553099561100746	0.0520115741465389	-0.02903224521872497	-0.007344237791813308
0.004614472459134005	0.0415658485268081	-0.01891985700445636	-0.01049866237541299
0.002338625450439946	-0.001250092516603389	-0.01040641676512854	-0.009409645655193154
0.006666352609770909	-0.02764957967808613	-0.006165122095864292	0.002313062394647778
0.01214323665761813	-0.02885734795370633	-0.005961888641169011	0.007261496638593196
0.003033300764272855	0.003800264368271222	0.0166550057715902	0.00935578457456906
0.008590749390391417	-0.007457331946305128	0.03419791734148653	-0.003487040628625106
0.01150254074540098	0.01072422111911141	0.03408953579426172	-0.01712648359084997
0.02467261268141741	0.0633050588197836	0.02960018046719393	-0.01855067947021021
0.02188856711468453	0.09569552613222927	0.01203825075240337	-0.01918498075581892
0.0225966768176353	0.07605413606520199	0.007644239485959311	-0.01264137267875964
0.02598111080291708	0.07782265384395565	0.02305855034224789	0.00524654912699905
0.03609482068993777	0.06270648421206131	0.01035131464000334	0.009779364818617709
0.02498469310946203	0.03402988109603901	0.007856880900335877	0.006614809650728911
0.01683692177561088	0.01230469182802219	-0.0001825741740283852	-0.009013151330534224
0.01425478552905362	-0.01182888850630733	-0.006761454676140302	-0.005811299998160149
0.007970858440160883	-0.05759882419639762	0.0006552702237723332	0.0002256614613383968
0.01166704992301496	-0.06308056165794557	-0.006971254439896326	0.002828984984745383
0.01435142391283383	-0.06836948412689173	-0.0146334086355771	0.006807715341965782
0.01567065533807461	-0.07241699220862644	-0.009712312158733014	0.004630615258295569
-0.004389224404840492	-0.07977155366364015	-0.003380784409848828	-0.002500158605190117
-0.0353553806467875	-0.05837153153461677	-0.00591258184700946	-0.002995632389055674
-0.03790163499013006	-0.04402479590062396	0.009207581875714896	-0.002956137699701692
-0.01133864526784644	-0.01476641679061859	0.0076630562030173	-0.005125506020972765
-0.0198348328174512	-0.0154108286390896	-0.004957518965159603	-0.03137162785609441
-0.04770968956793183	0.01802026497794572	-0.003184820138549373	-0.02689963208259415
-0.04735361023547834	0.02443871175992497	-0.003704484159072995	-0.004706562779574082
-0.03612838184162814	0.006149789960113036	-0.007423638019008405	0.008203491717876195
-0.03338491535799439	-0.01453818790089045	0.005178931050243589	0.02433893975200835
-0.03341012972000562	-0.001180352548675056	-8.390142206854362e-05	0.02191267385743534
-0.01856675464452066	0.01320772661759073	-0.00241105700473303	0.0177758201618832
0.01957704626594748	0.01145021962153667	-0.02283826274846057	-0.008971677682355555
0.03064799491434359	0.01184771318202048	-0.02746875709517724	-0.0138514652735391
0.01880073030941173	0.01921498245722126	-0.02028105828853621	-0.007280546276634298
-0.00321611433441878	-0.00370826525242971	-0.01551448728621382	-0.002444819498882543
-0.002911350424274874	-0.0261578869387866	-0.007723868748695923	-0.005872598690140006
0.01091312164601793	-0.03483765443812603	0.0001000705930946343	-0.005527558462264696
0.01266587690560467	0.000697748810481547	0.03779715257538459	0.0169790158889335
0.01124372550227943	0.03820470002507363	0.05932169163271987	0.02322324997756985
0.02536309731326342	0.05777287338617138	0.04475173463611216	0.0184518708573846
0.02033261132219185	0.04562668754119158	0.03588912153608809	0.01588035253066981
0.0001636543794145438	0.01610451292816891	0.02425332377939691	0.007967734961234454
-0.006206631198583114	0.01980519732921871	0.006921356084693349	0.007072976099587471
-0.02653927911065317	0.01545151694568187	0.001615114670246662	0.007056498524846314
-0.05498902966408478	-0.05271512050904627	0.002900066391916463	-0.002418282840385502
-0.05406554506467098	-0.05379883004364416	-0.005095013521888419	-0.008615405436912934
-0.02126308942860829	-0.00905267045628369	-0.006988533413339235	-0.00253380390623943
-0.0005599199381027942	0.0112018857845454	-0.0204561180221262	0.0009294339880847952
0.03210637221696028	0.04229643740949168	-0.02600144088238944	-0.0001807403158406021
0.0319433156341016	0.05251197149958851	-0.0288212968060198	-0.002932112249997619
0.04035237662791326	0.05271751125562322	-0.02905408778859544	0.003876552258267155
0.03048323293139104	0.04521682029667083	-0.01716920425957669	0.01492356169192168
0.02377927112573568	-0.002268480044727943	-0.01301321434301219	0.0178281644300457
0.02015517362762774	-0.01034039928918763	-0.01001509237262599	0.00149610189747633
0.02293302348911481	-0.01524909555355249	-0.004933186588529342	-0.01209893865536205
0.00462995997225196	-0.03648219322564561	0.00110416774444101	-0.0248951896923431
-0.01136328039185078	-0.03888434608387385	0.007885755618450341	-0.01777565050926013
-0.008986081322579175	-0.03151119915725548	0.01077898989710473	-0.006040667977319724
-0.01624231125834933	-0.05147223932660745	-0.01116997120150488	0.001454686114929492
-0.03537924201904162	-0.05426763711562178	-0.02406767273511183	0.006761530037253979
-0.0367411717424008	-0.03230889764573557	-0.02052398540304311	0.003695921427600348
-0.03359114786049281	0.01215410577509887	-0.01751881038692	0.0009661380604626008
-0.02204399731944206	0.02264025675085541	-0.01804303863280728	-0.01013241932317805
-0.01173693065125436	0.0160441606774166	-0.007946533119695986	-0.01372978681322468
0.04883141497530522	0.02620448973575187	0.007000519537693082	-0.01136938516691705
0.0535818022240411	0.03156179726767638	0.03539403154663408	-0.001678205286958407
0.04425791936104435	0.007848609955043991	0.04751821636940749	0.007332090981183743
0.03523894777351145	-0.03621530989053558	0.03071268121192454	0.00897251527567043
0.03161922488104291	-0.03504706351265593	0.003755973933920651	-0.001701085079151734
0.02766215731783829	-0.01404069399913397	-0.004452421732325717	-0.004408367492851659
0.0163485766391941	0.01780087481790046	-0.009244906538014073	-0.006914635395421531
0.01248929471827945	0.01950790997866947	-0.004495644909973755	-0.005378569147531521
-0.0002231089108962249	0.01767988037309911	-0.006635763636289256	-0.00294921084319836
-0.01307472630422729	0.01287928763446493	0.0001048205533457184	-0.001295047863233635
-0.03393354361920514	-0.1103765731201923	0.01953476026568671	0.01630717446347218
-0.03850854314574024	-0.08434058780821721	0.03340204225081127	0.03012612566805614
-0.03278693514129276	-0.04189418973728645	0.02563211445714186	0.02029864735018856
-0.02712576621466629	0.01210794847885264	0.01358294970805193	0.01379941368305823
-0.003694209935519556	0.06190640473045712	0.002910980252162298	0.0009274648647288604
0.002502054729262278	0.1256361592091471	-0.003343554588439802	-0.003589848504476054
-0.004257374072385318	0.1310343862709672	-0.009610179477380174	-0.001957159125961375
-0.006222477025194623	0.05785237589053614	-0.01354907163302312	-0.0009562073407499954
-0.02566797989333997	0.02294152598457848	-0.006976881888322769	0.00053790315342677
-0.02996893658665701	0.004492045956868263	-0.01269501081317124	0.00116622393375305
-0.02638131730707078	-0.004815305165834128	-0.01337765495669299	0.002624875244965871
-0.003543311073663484	-0.004777458233892172	-0.007942203328635071	-0.008070140682104005
0.02087830455171572	-0.0456417871919184	-0.008597099990695715	-0.01137572996235905
0.0603297386696757	-0.06701744751255215	-0.002748877005747323	-0.00976393486804693
0.03143292209701837	-0.05342605182054806	0.01223349131919893	0.003959060435665935
0.00852737737836869	-0.03800856725418996	0.00363480630958792	-0.0007640079293315492
-0.0009927876011435518	-0.02131334775383109	0.0006801870210958152	0.002403728220570412
-0.007630605425271526	0.01871337507748816	-0.001870937839598636	0.0025411178248023
-0.01522806851762804	0.03135951581242676	0.005686142857116646	0.004050333337352454
-0.01617713287137255	0.03471284891765563	0.00433617052472695	0.005333211517785511
-0.02158975470040192	0.01342629768882452	-0.006000457443308667	-0.002520862010595401
-0.01491496804761602	-0.01413908025848056	-0.00599680781140384	-0.0171055378981254
-0.008660819630769754	-0.01545725896959317	0.001871475848106614	-0.0138947468814747
-0.01804723598898511	-0.03886426301572242	0.003370351244489566	-0.003726872397498793
-0.0142120883496883	-0.03431549280719899	-0.01325320581957394	-0.01114195588631907
0.008142723135701401	-0.02021194633436911	-0.01838711848397207	-0.010228740414447
0.02116541937435928	-0.03436404092247344	-0.002201896208709509	-0.002631944054939015
0.0219583044214715	-0.05824735608240397	0.006647347549709663	0.001954468360082225
0.01428565732025182	-0.04777388243758515	0.0007756025558321927	0.008640543456453953
-0.0003298418973917712	-0.02779407447952848	-0.004286478150611432	0.006723936938387616
-0.02050220599429225	0.03911942998174158	-0.004594247952609536	0.01239207975523777
0.004046689203025759	0.05496090306173006	-0.003420645061951174	0.003490884540591169
0.00954981510556476	0.07496133239372001	-0.003676134260545613	-0.003968258207853723
0.01274606567010135	0.07776195670862356	-0.01097214302491418	-0.01049055372078165
0.0165702260487021	0.02588003023298345	-0.004496771386010225	-0.02144728644709431
0.002699132636333737	-0.01831229155661068	-0.0008739466166888021	-0.02917532711900395
-0.005143628925898027	0.008148853865509214	0.009409997679742179	-0.009373811539552853
0.002672686840607226	0.02528940931357012	0.009266802002784416	0.0001579325954458532
0.007499287589548326	0.01362884736011294	0.009386259981020918	0.0120683858382577
-0.009539846398624737	0.01711259917820489	0.003882800486431639	0.01021453056688443
-0.002608413297435543	0.01336096942739705	-0.007183440419207809	-0.001195801177353023
-0.006774314876828494	-0.007284810960067157	-0.008735811669349653	-0.005461217151183365
-0.0124827914227762	0.003289519396551656	-0.01525748034381151	0.0001425836389149012
-0.01408328461424405	0.002717670476507354	-0.0002315455531148401	0.007622103753369394
-0.02453809532520707	0.02296880474724515	0.008053052842607678	0.008691807187643789
-0.02387497315917196	0.02187498906050925	0.02572513249886491	0.01839336643205183
-0.03729175337439002	0.02566425672907949	0.03679273402725089	0.02421648923966452
-0.04244742382906446	0.01490980269926808	0.0242427539762866	0.01784125495343533
-0.0080145189496694	0.01074361874795251	0.01884681451575477	0.00783090632984311
0.01881268501577123	0.003073018672550313	0.005813223712815199	0.003469836540793678
0.02704777285157753	-0.00201708718577684	-0.0001492216051965749	0.002684670946141313
0.00858094434876407	-0.02723904162564477	-0.003575777542428627	0.004806673222199784
-0.01378174533005097	-0.03143797337936095	-0.00266988237101563	0.009039238041495094
-0.01768690965096386	-0.03615470074996261	-0.009702631195100946	0.004081345904159076
-0.008413279857887229	-0.0335549687198054	-0.007150357454765268	0.0162684457921584
0.004283029820901124	-0.03070756235326035	-0.01527340577921469	0.006632671521022701
0.01056582824247746	-0.03599628933172608	-0.01937678354868239	-0.0120496228052247
0.04419990859419234	-0.02311691202084951	-0.02304749575358793	-0.01347288908535675
0.06558028964622216	-0.006088786110312701	-0.01120857586930279	0.001246341436513221
0.0660628949933833	-0.02032193292919692	-0.01612236710111743	-0.00770491699178436
0.03544795605131965	-0.01972126802720744	0.003090973688536113	-0.009030594146430542
0.02141015303592414	-0.01568875955958962	0.04455596059348326	0.0001755575218033646
-0.01050453763146019	-0.04346086566893969	0.04058342157088552	-0.001037723061414707
-0.01950341973944781	-0.04308295037394776	0.01438984530003107	-0.006734563697509958
-0.01985870736204206	-0.02633890920098451	0.001952920073955027	-0.01043368385041986
-0.01393049262543111	-0.01038636628507047	0.003043807249369647	-0.005841944634957434
0.02049325126734051	0.0102386926534876	0.001110006857430872	-0.0051872281591115
0.03079450223102953	0.01961278472014611	-0.009148262482796959	-0.00448992585267182
0.02427210923872387	0.05087441903252862	-0.01418027863833643	-0.004811546514289115
0.03183021690399768	0.07866383045403488	-0.009135621212722171	-0.005144765922999976
0.03641831781541979	0.05339780486525959	-0.01269057527428256	-0.009005676386650091
0.005869448395379073	0.01858690295321281	-0.01535728996198475	-0.00928615502627907
-0.005078551201309803	-0.003672549157936175	-0.01123125678528618	-0.006412863968367607
-0.006412083761666223	-0.003470185588964866	-0.01823998248635425	-0.002739757671439712
-0.018695275656655	-0.003296538615378186	-0.01796694863762466	0.004098567107437494
-0.02754386809584481	-0.01811522265930122	-0.009366419912879132	-0.003178552926783226
-0.0248336924382789	-0.008725475807472289	-0.01210059541963466	-0.001320955995258886
-0.01299680084041827	0.006046774931814792	-0.008643212097746071	0.003687818101896368
-0.01299742542080216	-0.02607172076973942	-0.008593634558247775	-0.001620268824835081
-0.01650456670562529	-0.03238058905208797	0.005519090287269515	0.01452402915928292
-0.01269388779903454	-0.003974463251415738	-0.0009185227155430099	0.007747003371622973
-0.01104980183476475	-0.01927474655021867	0.007163432919213409	-0.001485033595303908
-0.01441475764145233	-0.03521992915031088	0.03608312189597255	0.02108068487626863
-0.01352151697149555	-0.01772149648771645	0.02665280757706678	0.0193072294928624
-0.002213958960493936	0.03313742742518599	0.007650428348308487	0.009652544250358915
0.002393812790982747	0.07435469198723513	-0.005390108302886736	-0.006859710086845433
-0.01455063012170373	0.0892444648293219	0.004044632117580847	-0.00791236238357579
-0.02974401946759918	0.05591094583603558	0.03314860547260459	-0.0139713139568055
-0.00958453595376761	-0.005392381612996576	0.01695694075481661	-0.01133892779889535
0.008953320172682929	-0.02067915723610472	-0.009171250304295782	-0.01342952126055537
0.01486572490585308	-0.003570460645285446	-0.01252934418164763	-0.005755266702640718
0.01436473447497064	-0.001128676000403836	-0.03548783715206942	-0.01313335295641561
-0.01575733803703498	0.006311743361310163	-0.02801080799092505	-0.01475445308822709
-0.02345161430412251	-0.004304015600193049	-0.0001125340063729414	-0.004782364971166041
0.0146014662871299	-0.0032939007592377	0.01924799107334224	-0.001599891727903678
0.02014600312285036	-0.0146803595096437	0.005507274234349187	-0.00105915995977692
0.008576584722013121	-0.04538227190370882	-0.01494302042170779	0.008668858133386153
0.001911661469734449	-0.04505324436864211	-0.0183404142084574	0.00990208826895486
0.002799006667352144	-0.02168699191483535	-0.01724479294655625	0.002282673741207591
0.001491018319875985	-0.0009318924058336472	0.005192351733204405	0.009739032197378431
-0.002829050340409553	0.03731941737493864	0.02011814669918891	0.0209735075065923
-0.01013243677883476	0.08132655264072235	0.01877332712705632	0.01990998984786218
-0.0166164182407225	0.06718045572874504	0.01072126576080654	0.006395628535415919
-0.01658692041323589	0.02269729674876409	0.01540014452469064	0.001491937503616423
0.005729027057565507	0.0270968151637257	0.00684271856847128	-0.006119924668079391
0.005718710207264969	-0.000891706056047682	0.003714970581149415	-0.004126613276024013
0.004990079229938002	-0.03178262015892011	-0.009337319549346568	-0.005687851448771815
0.003927292114674581	-0.04751691393395663	-0.002115021753563339	-0.01327210727959548
0.01615216385868318	-0.06462302637390291	0.004097102967764193	-0.01412965821286945
0.008102622253694338	-0.0683079624119983	-0.002208992005692189	-0.009903781611558256
-0.003749272141761783	0.01349777741340472	-0.007089782006138229	0.0002190311234752978
-0.005653849185365489	0.007143263443300922	-0.007392970969550636	0.009005801678712224
-0.008306361587327045	0.007602303637130296	0.006103725403749063	0.03018849100477973
-0.01117087043256155	-0.0005234586720214302	-1.641056629386162e-05	0.02794486300968679
-0.003920318490655619	-0.0028278501883697	0.00255294625284454	0.02491151040893526
0.01370306742552703	0.008422497313957559	-0.0005985910897499247	0.01648852953581369
0.005597726548436295	0.01896344540760518	-0.0001125091758743479	0.005889529613097017
8.670336181933522e-05	0.008386179914066037	-0.0007658271719739695	-0.01347303001266679
0.01401937668725307	-0.003360066962830392	-0.009875203209894446	-0.01683790960148026
0.008159069537566628	-0.02344195241119416	-0.02320248037831931	-0.008615111085071958
0.005360192746823361	-0.01057911997219363	-0.01631076397376694	-0.006587568854549233
0.01938576573167673	-0.02797351160956717	-0.02668763318016881	-0.02002998720362329
-0.006041590240242992	-0.02018407826299196	-0.02307112731928184	-0.02334587543213104
-0.02581520508983664	-0.01709180744810799	-0.02023472285627552	-0.0167859102870437
-0.02360495348536761	-0.01380459833644883	0.01886713054570403	0.00850829756584006
-0.01177621862304446	-0.03054627001441606	0.04481766552202562	0.0200389009669746
-0.01794707023661494	-0.01780181107996486	0.03119513373427346	0.006201381181045434
-0.004287724415709672	-0.001660934281492083	0.01457118196171351	0.0006346833339638988
0.01181039215991814	0.01576312440290756	0.004882937948753552	-0.003468436926994586
0.008349772762779321	-0.02709900669478339	0.004685643284516527	-0.008860475470460313
0.02579557873440577	-0.01387689353242318	0.002144638028088198	-0.00102369879222336
0.02801476878667931	0.02192688899780102	-0.005021844152507578	0.0007262834890651642
0.01493205767384552	0.05753276484729623	8.537277327521968e-05	-0.006889093610334474
0.01464767792242517	0.06530352745911376	0.003605378516003619	-0.00869211677880246
0.01574395382674931	0.06699874544722502	-0.001985931189363891	-0.006810392808949245
-0.004338907335681367	0.03240633599354293	-0.01236067693100941	0.003425630418188733
-0.03121842777405026	0.01931699995505635	0.01153169736903186	0.01137239646836327
-0.03281794956602998	0.02761546916113254	0.01436509044278577	0.01958716625056772
-0.02933438918652309	0.01549402695843503	-0.006093080452280509	-0.001359011395147461
-0.01904751819416195	0.0006537765999091575	-0.007305168363865595	0.0009051514679897962
-0.002988392588920924	-0.01638739874581292	0.01240672270729813	0.008834698622564129
0.02088789503590507	0.01133794589754241	0.005140867362733007	0.0021932246880456
0.05323456518747726	0.04191064235362579	0.001927673791908795	0.0009257208898809346
0.04990282092812154	0.03983815866303619	0.003666255616443057	-0.00771592034052497
0.03085697638721367	0.03260526817919004	-0.00217618479320552	-0.02509230710370919
0.02430303898873612	0.03067267348206317	-0.0119729333106372	-0.02780903933940853
-0.002334090092914168	0.012683127549279	-0.01934480210418233	-0.02364285120955427
-0.03415592464226166	-0.00730869079649013	-0.01451595017539132	-0.007626862320416258
-0.02175789745313876	-0.03244677283789373	-0.01292916648275802	0.009972768708983512
-0.006435365992188166	-0.04542758914917231	-0.01389347125642934	0.0142147763170062
-0.002407784117241837	-0.08218892918072698	-0.0104622718696393	0.01485705421663316
-0.003748194406075208	-0.1016106533327756	0.002736180415166292	0.01052298143305687
0.003963142063370558	-0.09130553503057021	0.008361566200962147	0.006876962269820822
-0.01250444790463315	-0.06255124025453232	0.002107500508234873	0.0006340654738924994
-0.01561146000787084	-0.02616887915605094	0.01259019655502601	-0.007268763645247873
-0.008062628904353192	0.000541157824314298	0.01886133653266601	-0.0001451324552762604
-0.02622127521147733	0.005096510445142899	0.0148716565158024	0.009024205759286662
-0.03442234612975619	0.01638128107040017	0.009376152543841368	0.004523102342767977
-0.00899619944081673	-0.001199618230532146	0.02097559418772191	0.003111462732274349
-0.002468433983141517	0.01349555194497288	0.004611504561307655	-0.009474497156649726
-0.004094185755406533	0.01857107588516156	0.005524035406073568	-0.01160570596044372
0.001590752331109413	0.02249135644421152	-0.009784178679066413	-0.001201428832336318
-0.007408237886750977	0.02208346774506076	-0.0113682366741588	-0.001257325687501603
-0.00298373902461548	0.00434795652272654	-0.007713859831291804	-0.0008454079401043336
-0.001914656131979235	-0.03376143938015671	-0.002543398041195892	-0.003213387247569454
-0.0006752244574324704	-0.05694009740664085	-0.002962837692769014	0.006228627848817238
-0.001926666467045332	-0.03557149470575328	0.001374965896216914	0.006773245228827819
-0.005213362329627928	-0.02694512762962966	-0.01043308661492243	0.006269334219662782
-0.01334331072125798	-0.006759246408409628	-0.01591027252428708	0.001097443235105288
-0.001824416064581281	0.02079855316133027	-0.01614421302037744	0.0006997413320711038
2.496905621414356e-05	0.02297416505270749	-0.01141553032950775	-0.006112993431863154
0.004952197119297746	0.03178819040410009	-0.007065992658708	-0.0001782872796760323
0.00326855559625124	0.006060691019398213	-0.003126463442089203	0.0005577054644781167
0.02011480082154781	-0.0148120092071685	0.02454895386120252	-0.002774368612479777
0.02513392741700643	-0.006896117219002115	0.01259522022411001	-0.006945798624324665
0.01016386384627956	-0.004398064591492263	0.004016281198654754	0.01109975464509873
-0.00667439130761457	0.01286327086507633	-0.007203720060299556	0.01567565198951831
0.01359768358947968	0.02946502086126792	-0.01977646162471275	0.003972452088017917
0.001497161018066083	0.07769117627735986	-0.01644871215257269	-0.003435091642598017
-0.02355477194569135	0.137205905787721	0.009527106055743109	0.007343472928837292
-0.00356100278914789	0.1372470690875821	0.03304532303843206	0.01387965256444434
0.01204121460196312	0.1111854359763016	0.02576056679606586	0.00798656821638999
0.0115752789880207	0.06643746187281276	0.005330020168031621	0.00291408791922487
-0.0005999563650385693	0.007790482866639388	0.001704375203037508	-0.009800371073682429
0.01328527051164803	-0.01022633712151057	-0.007992483340251343	-0.01378320229928454
0.007174001879334504	-0.03855182658745788	-0.006737280279950194	-0.004591884671679178
-0.0005883463896785847	-0.05559577893605749	0.00217494056837556	0.003653419149654846
0.004139958044667939	-0.04690241366115159	-0.001795287202564819	0.009526541597635742
0.009534028652270175	-0.04625196259241895	0.008205552910835884	0.01057176797455135
0.009775653787321517	-0.05763873796200019	0.01735932682232792	0.01056274160730319
-0.002221382857008628	-0.04664705946068362	0.009359880477426561	0.006020373608118143
-0.004986935956992098	-0.03928727232816716	0.003863411345480524	-0.002148624787151464
-0.01318004102725769	-0.04682453286344331	-0.01526190939147152	-0.01314560362033881
-0.005882422845095892	-0.06928943304352329	-0.02391829359460611	-0.009345292659438549
0.003769252795005233	-0.08921142322111304	-0.01630832194699056	-0.0007161242096536788
0.03248525725683392	-0.0765686889769434	-0.001627190362297207	0.002709570260949717
0.01860156707390765	-0.02474772150532425	0.0001105644980545256	0.0003022278628838619
0.01263547871861571	0.002780775799486075	0.01652059891463649	-0.002720834751006913
0.01205027796846302	0.01201191320992739	0.01693508626117178	0.0002898522985839857
0.006142545026822425	0.03113209908521835	0.006974421102774735	0.002406232924264986
0.0121574708463651	-0.002772637721446648	0.005071719221168411	0.001473247618083537
0.005681159771521573	0.003118901254980648	-0.002361386798619278	0.004215511987436226
6.988603152445715e-06	0.01585398713554767	-0.002754093766439974	0.006490474273472401
0.002979247479491862	0.004675515891492678	-0.005658804904398412	-0.0009197667097191145
0.006006166189764938	0.01088482662294685	-0.009862556277788511	0.0002265726229150482
0.009672413883922707	0.03409044034338155	-0.01152162480809848	-0.002591754667552544
-0.01023049267127202	0.05907826250689636	-0.01319900139842708	-0.007099897403330291
-0.03848044227966023	0.1201005475570951	0.008061015067582389	0.003249669732560583
-0.03666963507345024	0.05404173048651526	0.009636867316124656	-0.008283722426399598
-0.02071982892793013	-0.001174198806929872	0.01235077398105344	-0.00700254764283613
-0.02943635847002869	0.001864324769109124	0.009487959308007689	-0.0008855219935678907
-0.02140535004655349	0.009810624294208974	0.002084630414639885	0.008254077682343718
0.02005080202031799	0.002453069942072768	-0.002621740789799974	0.0183630095414338
0.02848534783556628	-0.006403690813633932	-0.01454539828143803	0.01044630319093689
0.01226499121645332	-0.01448748557353328	-0.03033459891703049	-0.009116980268025408
0.008347687308385802	-0.01027628107553358	-0.0276581357156814	-0.0222750795927018
0.009078124712362268	-0.03595304249150934	-0.01659372938016088	-0.03642088372297984
-0.006960321099737625	-0.06358086337701835	-0.001142550650991588	-0.02397703747565134
-0.01771701543104645	-0.03919682556253246	0.01191893501149765	-0.006957773895590261
-0.01502710974819708	-0.01237282462378019	0.008662528139269631	-0.0009815284140045999
0.006500012971963303	-0.005566673676825469	0.006816980240287628	0.01014127746288287
0.01158605637179593	-0.004955114304189585	0.01045689919464321	0.01583962930733346
0.002972672055088597	-0.03170039278584818	0.02223771527830149	0.007393991125648204
0.01233337516357772	-0.01258428854090811	0.003959806587945656	-0.007771507796715351
0.01490838943269999	0.005232081740902463	-0.01016654521137261	-0.0146059906420869
-0.0007388178901028794	0.003258332578916308	-0.005349561386802133	-0.005448428726195881
-0.01373327936630289	0.01811392166974097	-0.005505728613410575	-0.0004356848135255805
-0.0281209632569725	0.004550884041673451	-0.006174763166882253	0.005121014007891665
-0.0658228661164187	0.02037425953153244	-0.008148280841097279	0.007722529666214155
-0.03678447057651396	0.03953561882285231	-0.01201282152967808	0.002250934475449917
0.0003337628975812879	0.01973707232955195	-0.003129267137800177	0.001198506667356528
-0.004730305008037881	-0.004823123891041338	-1.659355966263728e-05	0.003623569312700175
-0.01143683259576529	-0.01593394834534434	-0.004894731543787568	0.004011050350097625
-0.009653159997829442	-0.004759591146735218	0.03703224430665228	0.003625677009724518
-0.000233731822581287	0.01168508826080389	0.06126349775037372	-0.008109056595389099
0.02045548867999013	0.0007575119855090889	0.0386488780668961	-0.001774819463753884
0.03906668076469891	-0.01084396187701548	0.01405794628886383	0.00441994298529451
0.05260655310284432	-0.007447728823894988	-0.002471598441593562	0.004337406904826696
0.05103529983842357	0.007380233311992759	-0.006320736668790624	0.001390967193944887
0.03159994255458135	-0.0205258463339759	-3.842996050281832e-05	-0.001123296238862371
0.01779465226923256	-0.02183863089852407	-0.001180495689642387	0.004508290294939263
0.007791208905059095	-0.002522025506271282	-0.005179500494260747	0.002942841466325345
-0.00814086362726678	0.0105251484264988	-0.007539715130693183	-0.01167730849235394
-0.01317069313165678	0.01490096994715141	-0.009062709296301557	-0.00175785614971155
-0.01566485129489236	-0.02211196177276858	-0.009812076705297204	0.001601041609061172
0.01191065931959109	0.01388754687432681	-0.01253068611199968	0.004531613779037182
0.00225412871659165	0.02345480495652931	-0.02572815600156209	0.002839807328374956
-0.008526931530717598	0.01025745347631634	-0.02408282975095401	0.003076256763367909
-0.006397635359161069	0.004325521124965329	-0.0270255180448291	-0.0002392942724429074
-0.007410596779071293	-0.00229741391258535	-0.0199369389335493	-0.002401190498368734
-0.01794540324141723	-0.001208500964902868	-0.01279809112212172	-0.003663458766198146
-0.02606280762611223	-0.02063928448749542	-0.01872136896544965	-0.01532289872320396
-0.02258783803287486	0.01365635831659221	-0.01737041785080955	-0.01392748478542337
-0.01007226696217064	0.01983277673992463	-0.003745923510121096	-0.005574525497359876
-0.006170458655705017	0.04791557474824008	-0.001385848353814954	-0.004493345358603732
-0.003966495129692805	0.04122994017005169	-0.001459711871287201	-0.002502503118207199
-0.007038407942514515	0.04043478157048835	0.007170198783126143	0.007037395017936147
-0.0111727401874915	0.03726192206569522	0.01581607368929128	0.0124405551657893
-0.01298338570279374	0.0004520060709913808	0.008153772218655828	0.004665175758233476
-0.0116137176617376	-0.00710902191531955	0.005987524015785479	0.004246165859338435
-0.00840527652432195	-0.006121530712490308	0.01475375136144135	0.003991792505782375
-0.001720104217812688	-0.02121005146820433	0.01616276869948426	-0.0006389301725259833
-0.006689147740552646	-0.01472015135688824	0.004852531749813147	-0.003136787014113403
-0.00263468264502129	-0.01258167773043817	0.01898080335147062	-0.01013472093484818
-0.03426987068130344	-0.02936546333439243	0.002488353974043634	-0.001559551299904869
-0.02432780628729262	-0.0337777724457247	-0.01361367809713303	0.0001337821588956539
0.02706731412698449	-0.03864549801974645	-0.01071470504519524	0.006865761197378578
0.01393879388657645	-0.03558653164367057	0.02453908065151294	0.02228321360528826
0.002218302606152041	-0.01957196517522799	0.01871418033157604	0.02230643896644276
0.001568874559539368	-0.01058620171242317	0.01446772269769762	0.01563723835040536
-0.000544124389843415	0.01918592541923023	0.02844920256573595	0.01581528216417952
0.003802619580077861	0.03011427508930155	0.0155695873034871	0.01293739829386432
0.004890064331199705	0.02801116745935346	0.0001250842251234746	0.005017106996237598
0.006459483129525206	0.006989551195163662	0.00119955979779704	0.0008765200207649906
0.00745569466426979	-0.004058082650324079	0.0009644953170370509	0.003959551129801592
0.008999952638871366	0.006319170893989187	-0.009095013037301976	0.006458431584578815
0.002084223951471698	0.01753165829625047	-0.01068195196621576	-0.008458722903222159
-0.003248432234655616	0.01869149107562768	-0.008895453712765558	-0.004863418189205099
-0.02091512899364976	-0.002775384901525639	-0.004026298251385089	0.01400203956314635
-0.008840298467885798	-0.0009333239827481039	0.01275874256446454	0.0304381974397674
0.02055215252376202	0.007170083452492228	-0.001394340816240612	0.01407172407584425
0.04087829671136103	-0.006453294203633456	-0.01311801039903144	-0.004884811548937949
0.05067908300129446	-0.01230459686011021	-0.01229642784206543	-0.01282927843411011
0.01608102602005126	-0.02825466888137758	-0.01590584640228639	-0.0176514463041513
0.05282602247908993	-0.03294954880175286	-0.01333822283173519	-0.02014707570350828
0.06974658565643857	-0.01606614960646421	0.004580912735942006	-0.01818895494886738
0.0548536105853943	0.01435528344788409	0.002750164046174175	-0.0172329186154221
0.03532726507419604	0.02837508280609537	0.0009400859652447244	-0.005450524188051733
0.01827743342376285	0.02095521567023287	0.003822820744444015	-0.003190479979242882
-0.008236442482513573	0.001973754634313261	0.00114853326451712	-0.005133980412302718
-0.05876096498631541	-0.01409513513385164	0.0002461455630104976	-0.006581707176023056
-0.05844709451379407	-0.007999956405511235	-0.005833305269662185	-0.004362665409495163
-0.04903010560290735	-0.01535510155625926	-0.01287076192701841	-0.002042924526915224
-0.03822146181526496	-0.02910620657946684	-0.01568734574081748	-0.005747104101796031
-0.03338391290887922	-0.003534019261842077	-0.01730073198398669	0.001175843824073205
-0.006237852474784505	-0.0131931937466803	-0.02359642908895564	0.002193229469196859
-0.003513140687932387	-0.03318877194050223	-0.02514300483479119	-0.00143270761396073
-0.01159390556843984	-0.01568916123843872	-0.0251777720220717	0.002212039142527264
-0.01082016505342843	-0.001499295138706115	-0.01670281981211959	-0.008287801400276035
-0.01310409358165191	0.02777878879029961	0.02054872772737559	-0.009809674438284188
-0.00928499579073571	0.01245325803049972	0.06205543342555903	0.003792400629056577
0.009551794579558587	-0.004771909040549696	0.07405946355955828	0.004209627334297176
0.006727289666966979	-0.005281823210617672	0.06073689565825802	0.003200416262917277
-0.0250316178913091	-0.0223691701304224	0.02864417896737103	-0.001577827126652775
-0.03928575226002737	-0.03703353444888852	0.01100693120798235	0.00332439718145995
-0.01806089299505768	-0.008583064278562527	-0.00448179939084499	-0.0007835023821410198
-0.008755947077192799	0.001176372604692954	-0.006769384676129722	-0.002484250533111714
0.04718968261000706	0.02685792161195496	-0.002771150527046471	-0.0030593389025443
0.08825843544725902	0.05221978806103386	-0.008255564944375939	-0.001849379858019831
0.06164691581774705	0.007745749688404053	-0.008436864423074649	-0.003115486023609642
0.04337288364701643	0.03323220990076079	-0.003604784703122763	0.01667456248479255
0.04031947855278516	0.02459948575303122	-0.02275658100269891	-0.00220661398007154
0.01391901919830497	-0.002028781165316969	-0.02425509440716135	-0.006668453726544028
0.002939570896732705	0.008584594489627499	-0.03694025885842239	-0.01015023486923538
-0.008188769113903722	0.02577040466587628	-0.03140078774908298	-0.007709820978132575
-0.009334695621856209	0.0539881383661984	-0.02359647818781782	-0.003179302075032247
-0.01147812614875146	0.06792932459463875	0.003136219470744168	-0.006097832566919869
-0.01251106656471753	0.05777416859752861	0.03371166895008011	-0.0003216802460616611
0.001250224740159321	0.01690253182094898	0.02885884124304617	7.812992313359335e-05
0.006478894468814407	-0.004673874282923094	0.005475579330795655	-0.001294212212078744
0.007184979920747542	-0.03427800121488168	0.001753417345595295	0.007556292663129478
-0.0004105582160618047	-0.04244934403625364	0.031222272832124	0.01381289356758742
-0.00546017114716122	-0.04517374165812921	0.01679715194042431	0.01078480515251805
-0.006284285126951524	-0.04022764064907969	-0.004723505647317615	0.009526521427979887
-0.01145135286025888	-0.030122072761408	-0.008865522825223932	0.009074732494602875
-0.0104931549730615	-0.0164316109633047	-0.01218129100650312	0.006173903791696763
-0.01972743937417529	-0.01016121085472816	-0.01382523110207551	-0.009611243167351687
-0.01204467611082038	-0.03186903805668927	-0.01678966173887441	-0.007619992125527539
-0.01727777752817307	-0.03676166769085949	-0.01984125063275382	-0.00684798917564149
-0.01762881038501744	-0.01540432728822685	-0.009797124724401514	0.002053101876659295
-0.008327156306045238	-0.02001806856651244	-0.006180241765392428	0.007195762533681224
-0.005587532010303605	-0.01755722877936114	-0.003664006548878534	-0.002387091929057213
-0.00524945184183946	-0.0132117829412526	-0.01244245873177202	-0.004960537172405097
-0.006812746981982378	0.0359005489730846	-0.005350602330654663	-0.001492483065483771
-0.009435673908256724	0.03118517416295386	0.005026264479602484	0.001335057357359014
-0.006245599850651045	0.008123417913625251	0.01643954930954333	-0.0001063494863324592
0.003104149388847915	0.005844735969008892	0.007594044305227399	-0.008618159862206697
0.003321008676724566	0.01270178326858256	-0.008457511534074376	-0.008614329135827801
-0.01558001170623191	0.003283072779855918	-0.003934267354749056	-0.01142744094304665
-0.02845500640094593	-0.000457713911383042	-0.001199938157259781	-0.00845435907723356
-0.03324369296550738	0.01113944132909709	0.00561327499733892	0.003614387206998866
-0.03874229801374088	0.01139204568224799	0.006813828943957998	0.008099250938740027
-0.03502888381721544	0.01918224197425556	-0.003630129651209843	0.0007803174175761647
-0.01690591381992799	0.009374150694309214	-0.008227893690654561	0.008648727109962328
0.0005143830255955586	0.01837943022046817	0.003269060090992699	0.006945332652554314
0.01634797628989513	0.009342952198018749	0.01525700767794968	-0.002830657884508503
0.02924650961020725	-0.00251723945361511	0.00921991525876972	-0.01171436411637149
0.04476494693174381	-0.006907016028363365	-0.00843047174288771	-0.008884086368351739
0.03612303693770991	-0.04553448842898378	-0.02214532871631884	0.008806220459510098
0.01465660094023459	-0.06483448390946288	-0.03231884231850717	0.007820582042273518
0.01212179977034153	-0.04139280410730393	-0.02628939028818784	0.01340511572723975
0.004043635125376151	-0.01661432174401476	-0.007997862021686172	0.01595941652357866
0.004161937814656089	0.009981121555157192	-0.006234713136638304	-0.0006718951337560576
-0.005366062641754855	0.04224064522465116	-0.003421208719440863	-0.001791729622182813
-0.01695434412412379	0.04543101255395034	0.003272291988488519	0.003396967870706975
-0.01841558424673777	0.04022507275684159	0.008364758614071478	-0.004027949435944633
-0.01466111165888335	0.04400162071014685	0.01313209916898664	0.005138525047422672
0.005619731391239622	0.04567514781337364	0.02750982373364047	0.01406273849550626
0.02008583954619047	0.0218807418860917	0.01889193987483896	0.008379575388782859
0.03551831667895532	0.01145009961455788	0.009763202418666333	0.003961538987854676
0.02417475758057431	-0.009300016204191169	0.002838493626551959	-0.006069467231245404
0.007610352197794937	-0.0270679178180097	0.007681564169884768	-0.001169900838027345
-0.007450708329157383	-0.07645257807345329	0.01014193457595643	0.004220732348621032
0.00218324171503508	-0.08064802256708023	0.03700091497257092	0.01355996478435603
-0.01863965054202552	-0.04878512303003557	0.05499034507279956	0.01516504636488533
-0.04969445938746932	-0.01127321098468656	0.02986426473249143	0.01045196362622483
-0.03243540029338836	-0.007805413661669884	0.0142139301262921	0.004642994134012405
-0.002334488027790344	-0.008653809885448451	-0.007936373438498397	-0.008808059195072802
-0.001650787718334097	-0.001664545643809815	-0.003148331715784277	-0.01532154954909198
-0.0170464067232236	0.009679205058877954	0.001024942814444823	-0.02013302927796203
-0.02138068397664077	0.03390749903995985	-0.01274474314777131	-0.02140347698813945
-0.01710231188166941	0.03961266580084729	-0.01941975614546657	-0.008047503745241108
-0.0104391597288256	0.05858776417695712	-0.02524192911862506	-0.005383903779048084
0.003824526939188558	0.03993693867763595	-0.02188015726870903	-0.00792506782929509
0.01782223440597767	-0.003220061974786169	0.0007012802288166998	0.003861989823860184
0.004664878290422639	-0.02101361652418994	-0.006596393786197425	0.003579307465498641
0.03455189713628456	-0.02996707739095	-0.01681633649011482	-0.002014247868874451
0.05665444217338801	-0.04598175225428448	-0.03304443148756692	-0.006125615428848492
0.03739335114536286	-0.06512868393222572	-0.03155209077094911	-0.003869796884046555
0.01134794970901317	-0.07066730674225191	-0.03277544584499124	-0.009860554415004644
0.003506931994106445	-0.04639962313408313	-0.02510564199563564	-0.004177906232777696
-0.004668130269906925	0.002454259400417609	0.0003048487475034603	0.001537650614985643
-0.01821745316921109	0.01859377222287203	0.03713409822742002	0.005553150382063588
-0.01109292771167261	0.05218277459275374	0.02243099478796074	0.006468978949349906
0.005423494428770634	0.1001595850651092	-0.002854464673795032	0.001353861201997319
-0.03787102319095283	0.07086326965115455	0.001276244633579193	0.006233256151953633
-0.02391669830427389	0.06195061250611891	0.007451530772199215	0.002112443009032218
-0.001962534215368581	0.06154366906262529	0.009990542454203279	-0.004362588707956106
0.006402880516845831	0.05539786080323637	0.01528009302382739	0.001407103535672713
-0.004369968583123567	0.04063752364834076	0.02305958564391634	0.01050235075558317
0.007185819245540585	-0.005495541688109509	0.01923280555676387	0.004256535815647229
-0.004430999397042264	-0.013768540393355	0.003552180086393388	-0.01018657513533264
-0.01738236941485426	-0.0123488641536651	0.002348542084028866	-0.006019137247546351
-0.00730151086371056	-0.0121513992571826	0.01124695485224839	-0.001681960309120998
-0.009471598854468801	-0.01558421955809309	0.006675985369190483	0.007065389406570643
-0.007232276589464352	-0.02318754239014259	-0.0108710803318857	0.007615689186407135
-0.003455118527213396	-0.01293902347185061	-0.009434632849325504	0.005116979463746537
0.01157621578308901	-0.009886155780238843	-0.0028600826243475	0.002042757557627178
0.02062941395955015	-0.008590455430535085	-0.01646182011007424	0.00121082095344534
0.03417374681076907	-0.01326098507035932	-0.009685069639654443	0.01307431434910386
0.06176826389592608	-0.001899030195791554	-0.005375526942229646	0.01343703608451572
0.0483317993781736	0.00690806687663073	-0.01010602067745141	0.006190373632583268
0.02414922645146708	-0.003269531441743917	-0.005822239857796564	-0.0004437939791779306
0.01534801198535564	-0.002345042501249123	-0.0148191428695683	-0.0129623784313222
-0.005428221725366295	-0.004380677094605883	-0.01564458350829037	-0.03542384805542311
-0.02847478814170374	-0.0396613875420453	-0.01899583050042879	-0.03128237600817291
-0.01149390674100594	-0.06091169559409193	-0.01692823338440238	-0.01490204531322685
-0.006982657375490485	-0.06307605566657422	0.0003562121175148966	-0.0001033162468906046
-0.007532383423356187	-0.05679966421239201	0.03141247401441245	0.02563917627958972
0.004274451587711262	-0.005582818260724879	0.04876616733982814	0.03435753037015153
-0.00148298097951274	0.01365701263896887	0.0608231646287956	0.04211913398845377
-0.009260025188434525	0.01909606999152985	0.03941739050853148	0.02282058449313504
-0.01611829905072181	0.03973831537268349	0.008916324042623915	-0.004201833403001749
0.0005538812429572407	0.06455020874707783	0.0006983157563625943	-0.009804158388908737
0.01499432931508024	0.07080582476068549	0.001091361135294306	-0.01322433609500109
0.02145402048720407	0.02373987048867176	-0.00850126379177501	-0.01380403443530681
0.01074531649074053	-0.01348730832242122	-0.01845550837743876	-0.009699510318894202
-0.008831292724362498	-0.04650188386014349	-0.0312936646475102	-0.01080327148638274
-0.02407486865784983	-0.05348193364716747	-0.03328511550469183	-0.008264758356985121
-0.02898428327466487	-0.03956773969954122	-0.02121374172534052	-0.006503654047562312
-0.03178836465076503	-0.01565291315042869	-0.01182509635154082	-0.005245831804689029
-0.007864581990151444	0.005552659036743645	-0.01180254377175754	-0.002583148958473696
0.003441101391997688	0.008017907181986049	-0.01187436916426364	0.0007005346093295172
0.02510501584294804	0.003520640626634825	-0.0008765897753258733	0.002506987488405274
0.05089914032280012	0.01478395836651289	0.02085609532776518	0.002086728009549685
0.0582146147830581	0.006422194856447516	0.02026167427366121	-0.01003315319698109
0.04133461359439421	-0.001544631864589432	0.008322116247255247	-0.008090021612497174
0.01672940230786713	0.00542980107697038	0.003549658996831829	-0.01147211307834623
0.004416951596590504	-0.0005470810963659912	0.007332779676388709	-0.002855278144081928
-0.00431487667723169	0.001564171498185414	0.01461103385462893	-0.01159919506649322
-0.01187070641499299	0.007572230226949187	0.01356356239812117	-0.01033993350945523
-0.01199337090013119	-0.003207971088130229	0.007304400879167758	-0.003263027982124088
-0.01237414754338581	-0.008695972735365069	0.01016116765077568	0.01534192499635958
-0.01361193034336936	-0.05277043080570896	-0.002813439404395839	0.01037518540003128
-0.00711040136000971	-0.09310664826736616	-0.01391647720589303	0.007357140017206014
-0.009819544015942712	-0.08254802164948022	-0.01085810968438546	0.003898689145212702
-0.008815434742343855	-0.04038064699386024	-0.007844076468731845	0.005392638422103063
-0.01281428815573275	-0.007514681411602645	-0.005460115648969818	0.01619248234171562
-0.008972795872312787	0.0293621299917833	-0.008835275238042284	0.01379926905453226
-0.01108067664678763	0.05686202727861223	-0.02084788906544725	0.007841158480183406
-0.02089058181142846	0.1523250708747371	-0.03455092199240228	0.002831402708807221
-0.02091340035214181	0.1813496292777499	-0.03226183972281825	-0.0005424016211534253
-0.02587303024551683	0.1186585938238944	-0.02546320762374244	-0.002088799334570902
-0.0133737373330171	0.02412997234713374	-0.02137759082483061	-0.01441348529825053
-0.006076098591588393	-0.03697267283593389	-0.006453272628327206	-0.02566948334254724
-0.0342024785030489	-0.05055781689756454	-0.0002207527936744861	-0.02500921354154531
-0.01267274058466142	-0.08050366096534702	0.03407752161292027	-0.007476346057049549
0.001978318744533896	-0.09139173597796341	0.05267341146703177	0.008887431922167347
0.003818645763506219	-0.07812205164311416	0.02953642897171994	0.01018768352761795
0.003665542570346441	-0.03657829754716865	0.02224968258507682	0.01372244882329652
0.000934510768271291	-0.01774215645334447	0.02760434221748539	0.0133967915781759
-0.0004143576619308797	0.006613370705878519	0.03386531678294177	0.0106505017049589
-0.009040714809677285	0.0301178229430907	0.0193975035843071	0.01694646820584071
-0.01067727367259021	0.01691808624493499	0.004647157854990867	0.0125844243971147
-0.01534098701575536	0.02316403787143435	-0.003051399430857469	0.008724102664713318
-0.031272911449938	0.03215678197123072	-0.009146176362631209	0.006708201927776468
-0.0221830156406073	0.06217837579342082	-0.01861815561507574	-0.0006193687684560787
-0.003879014085062892	0.06397397882770184	-0.01883508362644276	-0.01793069344326324
-0.0140377058240007	0.02166745740933678	-0.0204218826954637	-0.01276240068694794
-0.02411384617520896	0.006203854223750092	-0.01800932581619065	-0.01199743404148138
-0.02163855466997898	0.00221739146117135	-0.02148208946752125	-0.001611999623593566
0.0198081272398154	-0.000442451238676915	-0.008918209230919159	0.009907268044805233
0.03084030002817172	0.0002173468415452497	-0.01199849233014448	-0.003166268451930943
0.03658665908038708	0.01050437350199411	-0.01039040274697134	-0.01264833316470066
0.06518981344810902	0.005465316134902401	-0.006387739826743127	-0.01139860872834404
0.03964748137216207	-0.02559135750219146	0.0003780187509880402	-0.006591465160794065
0.008144554841779176	-0.02057624510698585	0.008738160785296633	0.0008985441196613607
0.003140881675540309	-0.003516029757794126	0.0147497968490228	-0.008053567779106013
0.007457039363586797	0.06211410776546378	-0.00689861482228709	-0.01761048170067687
0.002963716987529712	0.04174093478469497	-0.01582013164953801	-0.0122615668571561
-0.01282307996215335	-0.02618208128125922	-0.001066121760505598	-0.001084944170560528
-0.01530103664179017	-0.05108802848105276	0.0194373438147322	0.01418107234183997
-0.01365757760814534	-0.05064632296802161	0.02679401596263992	0.01248685047266416
-0.00585586276605475	-0.03346800035977957	0.02737015268990425	0.0116761532299616
-0.01087805727547011	-0.05659368249332369	0.005581915609631421	0.01708405987570868
-0.001564112428990767	-0.02579199528715727	0.01144521833854424	0.02871721263305599
0.007323024604635275	-0.02139275537970773	-0.006039208402628861	0.01730969625833138
0.01484110397527303	-0.01499241199699481	-0.02187134511664767	0.01057032875210407
0.00542412566574345	-0.01874976814870903	-0.009482109547982386	0.004926695877047701
0.006831429731596822	-0.0109712546844553	-0.0128011693838107	-0.008318311962924783
-0.002535621428823349	0.0151666321695602	-0.01905657996714702	-0.02731601048126431
-0.01513916195681693	0.02120810987820403	-0.02347025525333845	-0.01525849578560354
-0.02564227256605172	0.007472500988505904	-0.003711982408884945	-0.002835438926470884
-0.03985888828565497	-0.007377351425959549	0.03115898164199685	0.001525561262598617
-0.04416470965402452	0.02300501276031702	0.03748694996449931	-0.004885016360164788
0.004888818907068064	0.04763602226648823	0.01893496511093036	-0.005459851643460864
0.06203763601573195	0.01585966068124703	0.003808971091175014	-0.0001987658444894826
0.06690326483011534	0.01810737315645923	0.004374135522216631	0.002039271529232957
0.05576309409940067	0.01106740377870584	-0.005672340870384338	-0.00648237919544557
0.04673312183813828	-0.02539411877561911	0.006499789315095244	-0.00535970608574781
0.003977302539066131	-0.02960745518865617	-0.007461531816521032	-0.003881593684377782
-0.0122599592765984	-0.04104628511989719	-0.008463955081363848	-0.003696418064310033
-0.007281396299975144	-0.02824433107320502	0.001944763682416587	-0.001866744031708971
-0.01028665726113084	-0.02596015737976408	0.0003165001115722622	0.01393267305812843
-0.01297389301536213	-0.03710845728542215	0.003513937239837217	0.01521941366361875
-0.01409063580912311	-0.02381994809766942	0.01254512546152417	0.01933834352310841
0.005318396331138057	-0.01231942975213336	-0.004559581916759657	0.003100454774060706
0.003296288349891803	0.005796866415430439	-0.008411733907484842	-0.007893993948635932
0.002452365923108307	0.01195430274085272	0.001325882163842083	-0.003077995330066902
0.006596262512405944	0.00534746009150412	0.00519729888394156	0.01154562017576713
0.01320520511703881	0.02763535739115589	0.002402083447353437	0.002947659039626899
0.002088436709004709	0.06306808281895848	0.00491618068952841	-0.002668765266743171
-0.00342916676513051	0.06065565146134227	0.004411248629514995	0.002312082757058897
-0.01279107250638226	0.02747534546635502	-0.01278970593826089	-0.002989444877786622
-0.02243332621258221	0.02421676330991478	-0.02603977231863266	-0.009480751857132796
-0.03077130715744237	0.0145852063693703	-0.02638558816418278	-0.008198927599132318
-0.01601262569961935	0.03351065418953381	-0.03169469819275196	0.004564927355643956
0.003498128040990314	0.02599170512931996	-0.02249112131763373	0.002791464225945763
0.03569175812831064	0.004846472825738386	-0.01616482027015373	0.01437803199128048
0.050293631842533	0.00830584179629308	-0.00908051534293635	0.01217646678507255
0.07261791633216864	0.03809787583643624	-0.01070267823823987	-0.001983328768403356
0.02761449702671213	0.005214334268137559	0.004489552339730431	-0.009804396190638304
0.01168941735682567	-0.02422939861519397	0.01749304140898917	-0.01018220330724882
0.01121519225958597	-0.02548694595037985	0.01816850986183745	-0.01583819503693419
0.008342226994738607	-0.0281924794903184	0.01887720787803237	-0.02261909726847682
0.006498001180216954	-0.03610590653688739	0.01488855055883253	-0.02310821784706446
-0.0172757267132099	-0.04156968235532485	0.01934825002480617	-0.008410253563996982
-0.05786238441076963	-0.0308299324716731	0.01834283290763841	-0.004450606100436088
-0.0559925185032753	-0.03524615971370171	0.01137713304040551	0.0005169079452824874
-0.03251094842670118	-0.02211200234960672	0.0007475087315579316	-0.003623165023713132
-0.0183495345748854	-0.009661560035489748	0.0002080384470667208	0.004682973657901892
-0.0092547743993046	0.0195942308821993	-0.003538946602131654	0.002161550608972996
-0.006992250897411517	0.01320313883694891	-0.006758121336336406	0.0001256060085261843
-0.01222276698152242	0.008337128271462046	-0.01136295917278563	0.007990731163803885
-0.02073260789501	0.01250182445345063	-0.009246781109665935	0.008910158285771538
-0.0229706117302427	0.008270403307347964	-0.002846872444972303	0.01019762003015389
-0.03433358659187413	0.02564050820265783	-0.003065055854129141	0.01800683007773863
-0.02269710938952735	0.01909073056709591	-0.009006546407060582	0.01995599618833031
0.009253429838882263	0.01020000309528784	-0.01135231960813386	0.01603632442975467
0.005485975850164104	0.0206301463176813	-0.01039697347683916	0.002436459305388894
0.002771853465199329	0.01266044050317744	-0.005144952347293658	0.005072602734787647
0.00139035441567408	-0.004510673352667776	-0.002391294339843476	-0.009449410323968441
0.004526703583303731	-0.006125850545082741	0.01814781960996674	-0.000390945489993883
0.008354152307971343	-0.00224407061437152	0.01716245920896904	0.004494479138736866
0.007740223735975464	-0.01223778373819364	0.02018427853852345	0.0002501749957570755
0.01148079081133011	-0.01459158441916848	0.01881592707660908	0.0006950704593098326
0.005266685778708606	-0.009704429963190724	0.01757742714168789	-0.002149497537565524
-0.003360644368540183	0.009509338864211148	0.01318011800175872	-0.003046056637735145
-0.002712621952662426	0.007086991199073073	0.0128313685497306	-0.0008669111703850776
-0.008003946623972051	0.003557452707286201	0.01057474655135722	-0.005014993261922707
-0.006661813626832568	0.003809597458879539	0.005957263538577858	-0.005879140866526995
0.01138467241209351	0.01632266144289591	-0.002925831697949997	-0.001960438236798849
0.0004596848416589024	-0.01834512619375078	-0.004955396387971748	-0.002393640207197328
0.01473496386957953	-0.02426589383535381	-0.01290625765303335	-0.007124854601403515
0.01787726272761693	-0.02268878203663238	-0.006816222076363088	-0.004352795218068518
0.01192214656138572	-0.01121283393629701	-0.01460545166734605	0.001687181825815869
0.005283455361716156	-0.01535138997835459	-0.02137737128995813	0.003773944174999306
-0.004799361368249888	0.0004243618615221958	-0.01368843715216043	-0.0006848438603979971
0.01440978502612928	0.004196045123484183	-0.01442507350880782	0.009748374929138732
-0.01107491230181525	0.0184998361559051	-0.01175165513987532	0.01176739840752079
-0.03532628519082964	-0.004441210401108634	-0.009210673659376013	0.01026269373503239
-0.02959101359070706	-0.02482142264319248	0.0113803975564531	-0.002392421561798487
-0.03688731967316522	-0.04977783795863526	0.04751466274415219	0.003549991289435968
-0.02922410325261254	-0.04074301858613502	0.03674820841083938	-0.01622563250825126
-0.02158703991430103	-0.03447579935907273	0.01941357306983617	-0.02618503861020076
0.008505905232416925	-0.01939041978817874	0.01645265031794761	-0.007311734756159677
0.0236327259059919	-0.007987170586993145	0.003754251130851032	-0.00160525462271488
0.03376913664603876	0.01660307065041281	-0.002892443899103837	-0.0007678528992249872
0.02848674586872683	0.01492897889052592	-0.004455783905223583	0.0005159862550567461
0.01520909456103234	0.002418193939942349	-0.01555591847269839	-0.00691953797152985
0.02261000073959343	-0.007608289043512273	-0.01747816990145735	0.002283049096954505
0.03294805555294793	-0.0001516010806471912	-0.01955952879890752	-0.001783376733273108
0.02844970062863344	0.01077367910763808	-0.0341434030335336	-0.0040228681832433
0.01984221799559453	-0.004718668942658457	-0.02824814518235697	-0.00875797915103139
0.03744923166956852	-0.0003758384171057177	-0.009252336656403114	-0.00622332758030783
0.03483971658733837	0.02068829389270063	-0.01109734005759098	-0.01165875936052069
0.02360061271222096	0.006507668547097618	-0.004679833442877258	-0.007036177996306175
0.01063023218522892	0.02907338515774895	0.02124661325577839	0.01145257353976397
-0.02113734210197826	0.02878025427730079	0.02145667621784944	0.01242344828663205
-0.070908363105566	0.03074001455550173	0.0139734607823431	0.01807260980094007
-0.06327985689402181	0.03823767172163905	0.01035582161002929	0.007915097670488865
-0.03113341396139911	0.02799043545193856	0.002786477896586209	0.00109028988757735
-0.01401290567942007	0.01507259959100734	-0.001048211922573341	-0.0006731352126885726
0.01378379433585574	0.02571474550787892	-0.0006807528496710291	-0.0206351717224046
0.02491092869102923	0.0146073923317417	0.00356706731269007	-0.01331886848842533
0.006982307569585591	0.008467904670468054	0.00372190557018346	-0.0007426879657658904
0.003662074708613303	0.01353096356410966	0.004025731864405093	-0.002827145296879128
0.01873374939856876	0.005523503126155319	-0.005677685410247296	-0.001164920825093716
0.01734301604661007	0.005830964734945873	-0.001230258212912712	-0.007273730667001394
0.01218079866408048	1.803914707900389e-05	0.005205598740400475	-0.01195927949090086
0.004714467787493734	-0.01885439916352444	-5.574591202881255e-05	-0.007009584624528331
-0.01118024608081591	-0.02678946830373206	0.0007044665194433949	0.005604237322516325
-0.02058086952930489	-0.02327791981364746	-0.00409230481536163	0.006004239309779158
-0.02042278994259679	0.01962815451166106	-0.008131352722937345	0.010453532725703
-0.01789233155968679	0.05335914402332512	-0.009124892657765933	0.01463108822492671
0.03048569712685823	-0.04013455338536995	-0.01491758655111985	0.02158329695990935
-0.01463710993665201	-0.03561034934221851	-0.01184480867715546	0.03291313726241614
0.003195980646061374	-0.01910121855598097	-0.0156160496748088	0.01420643337578339
-0.0004111902676007056	-0.01056418107308709	-0.02142851981795591	0.003425182026093339
-0.005218812140287595	0.04319695775546117	-0.01311790946238446	0.001599671458394759
0.006977646062092522	0.05275129629471738	-0.007863342982770194	-0.02572298067070524
-0.01144499601550863	0.02934550357641864	-0.008695771395841141	-0.01714183308345618
-0.02210121598696357	-0.01166320592232083	0.005303385309835863	0.002055951407275918
-0.01320152754623498	-0.02889395276310439	0.008149791210187041	0.002386312854147359
0.01038992949374646	-0.01969714705449734	0.009059898254384266	-0.00105533983832194
0.02077592138289537	0.02665303716873212	0.01652907065075011	-0.002195262342579749
0.03007816321172984	0.04061932216198714	0.01337441303591135	0.003341375089189213
0.02907165633863151	0.04733200708326693	0.005140995114584852	0.01364081940566527
0.01676613468769695	0.01126160478949942	0.005286901876914664	0.008957176414135711
0.004423799228007031	0.004675480290391094	-0.01469565061063993	0.002562468359148723
-0.0004901385070363225	0.001601481516643343	-0.02056617463725044	-0.0009370959153398422
-0.003444309304362209	-0.007609016667761278	-0.01884566527040803	-0.004535787800825239
-0.0009802498265916722	-0.02933771933758531	-0.02273880802755079	-0.01071362071225101
-0.01017493038038496	-0.02269302106927057	-0.02620315454130129	-0.0102978671695066
-0.00673830416802055	0.03025751020378513	0.001679768478347707	-0.006795891358720781
-0.0147960198247583	0.0319454714536381	0.0576494965772537	-0.004835120298488328
-0.01927915388239977	-0.02647585192971781	0.04916842469841043	0.006174290415188329
-0.01555149230909274	-0.04398708664957313	0.02006220094516134	0.01502221448446789
-0.01367442031021468	-0.06479049251251512	0.007008369381798377	0.007231650608766672
-0.01053332238061222	-0.0480955548862497	0.0002555873870758969	0.005925224789865569
-0.01645047423912645	-0.06404952468801592	0.007900224698535517	0.01422907076808237
-0.02398320911555633	-0.07851292319109905	0.02710309661785427	0.02054986817204004
-0.02261753757658081	-0.032270020276368	0.02200637332987368	-0.001866132572619595
-0.009283833592980885	0.04223992739226986	-0.002388233408414229	-0.005455047128317086
0.01045429458549808	0.03267254215777213	-0.008773038291454038	0.005183541463205295
0.006543888785947375	0.02259358468668057	-0.01090688884605562	0.00624187561776662
-0.0009324217313937945	0.0002791072728283843	-0.01132763614769299	-0.00454440584004483
-0.01614983583330258	0.004839788287760502	-0.01816307656780052	-0.008789441436491968
