0.04378424647849456	-0.05696684618496044	-0.01249577327680354	-0.01422321804296467
0.05955763378180883	-0.002434305230961577	-0.01655692213222863	-0.007024270566516421
0.07019430631646245	0.04303209139231235	-0.008421710655284369	-0.01000931025613268
0.08027143291426529	0.09873731490662824	0.006649794246868806	-0.01422548295319068
0.0583305655683533	0.09061518323068894	-0.01264955239592468	-0.01488389783472018
0.02153175634269148	0.07225411809724554	-0.03047854474045227	-0.007763768038539893
0.01130256534598162	0.08905395953664126	-0.06752151126526799	-0.009615770080516752
-0.007441142884518716	0.063092208052922	-0.05733693655503893	-0.005955994186562227
-0.02882223765407739	0.003365712149839195	-0.04092446222864699	-0.01466069581121296
-0.06323073039553886	-0.01778443945046359	-0.0253848957071406	-0.00937595747788748
-0.04665690868715201	-0.03844614253840703	0.07769724492942197	-0.006725856525763315
-0.02119817114290507	-0.03774788042906037	0.05979331009054708	-0.005879717532734099
-0.01202152777641934	-0.02710438568014168	0.05220776245164493	-0.004741501404630811
0.00398686517195826	-0.02128084287618418	0.03103218905925102	0.003088637462498097
0.002986835487963295	-0.01859739451060576	-0.00503769458822347	-0.001480897647424436
0.005938731159969838	-0.0237093561096175	-0.004075400282232016	0.001787208592644876
0.01152368196374421	-0.03239885871071582	0.007643098876679748	-0.002269367487941916
0.009116475636742394	-0.08871888783885895	0.0109875451792763	-0.007346563029440537
0.005381879131119378	-0.110568743161474	0.01482577750177623	-0.001073654984899815
-0.001686399622844153	-0.112768746940911	-0.0001209952093392821	0.001610848973827995
0.001029210836246341	-0.08271229822607974	-0.01527788645558392	-0.001391276335641391
0.01713261234920161	0.01403527701336461	-0.02296443503894836	-0.0005983772746277162
0.01900664857642044	0.1011935346045014	-0.05756015570761824	0.001608011105249029
0.01083401275560342	0.08025044653956045	-0.06674769861892633	0.00230591217235194
0.01157282939975341	0.1032063236797796	-0.01127871393060748	0.001058340524932683
0.0120019525793416	0.06892409575483643	0.01931219451209044	-0.001632896827771437
0.02097119505891146	0.02877198842468379	0.0001737431349938648	-0.004668098174713036
0.01707157674350299	0.02679644281577519	-0.02304740515185243	-0.01079617028499364
0.008538191657996838	0.01746712975261789	-0.005531719157537742	-0.005446886196680868
0.01106655183214275	-0.009398708432091882	0.002898565012707985	0.002287563628820862
0.01071102433228453	-0.02683599464049295	0.02291646044508993	-0.0002721382694826833
0.001143374166412197	-0.01592947331842411	0.04646890618844134	-0.0006150699173852154
-0.001506614872000674	-0.009965866461382806	0.01412399747177778	-0.002017733724038679
0.002605968846843034	-0.005803597423154486	0.00219367863130421	2.425902133875306e-05
0.002220839957688746	-0.0002676177641181515	0.00228003952565728	0.007195604237187999
-0.001956756976869011	0.004246214920633055	-0.03090492078316574	0.00834256862661378
0.002568527456459976	-0.002060851454928644	-0.02212121453320911	0.004870718044174276
0.002253881063542322	-0.00302283405308031	-0.01224814514292304	0.006639708806340769
-0.002635686626458391	-0.01996109230689801	-0.01014311492113303	0.001750146677975669
-0.001795000421003801	-0.03103983687415207	-0.0112542967432118	-0.00161833774582852
-0.007478058836964341	-0.03356091732093907	-0.02150952715023262	-0.0006489534734433933
0.002208869405302735	-0.01675577864346895	-0.01266739760342982	0.003569459343477454
0.008548381162581839	-0.0002992404201791441	0.02881758416169847	-0.003625882574137579
0.002875057887758371	0.0006941004507626133	0.01672149470630318	-0.008493867641971901
-0.0022019561834095	0.01445126652554433	0.00115321351326958	-0.005610083385262259
-0.002501540853677207	0.006745929158385102	-0.03030014460048255	-0.002127155617316783
0.001774603762466354	-0.004905029666546987	-0.02964327248647399	0.002917177038042209
-0.003227113307384931	-0.003827328328366748	-0.01514335313494188	0.0009060947725269644
-0.007315515134010525	-0.00267102414066454	-0.01630483208096572	-0.002011312589653467
-0.01297035293905559	-0.009982843159534585	0.007537211265314517	0.004682065425724823
-0.01123517338690592	-0.007378206551851855	0.07049433415825801	-0.009514790223018996
-0.01582729293941999	-0.02673686956916177	0.0571463663432346	-0.01412684284869484
-0.02950055250821921	-0.05241927389883481	0.0355911280269726	-0.01951909860068763
-0.02702175672079026	-0.05461692930811386	0.02679139216748255	-0.02357179775858869
-0.02441034466964203	-0.05344095602733209	0.008716981949266558	-0.02485810607141666
-0.02358065814766431	-0.03625572637226222	0.009325925595416056	-0.004623710939307901
-0.01264182544291574	0.001887086412830247	-0.009279937756819085	0.06898859916198706
-0.01076154207540121	0.03181200656204958	-0.02334591445042133	0.08286082326044904
-0.003630146266519375	0.08609160893317991	0.005011612622359145	-0.0004549528861249025
-0.0009041880513214361	0.1104580519388799	0.007313591519131801	0.008447713657475122
0.003011148693120228	0.08711735318822175	-0.0215945074793001	0.01057221776832141
-0.005251526619395592	0.04259255404352675	-0.08291570655887774	0.000859462214927038
-0.01199040663613965	0.00977640958026438	-0.07018170237897157	0.01995228449310309
-0.009282329214190144	-0.01068387512678737	-0.03261215053687035	0.01752265758942782
-0.008418408955825575	-0.03229427982221848	0.02674196430012386	0.02064178916135414
0.00232286307698951	-0.02624138872908104	0.06101021926280531	0.007121733730465845
0.005636083789450889	-0.02194229212667525	0.06487769239211537	0.009976273228192351
0.003246824674775465	-0.00930290258808697	0.02329687328612925	0.02274247106220971
0.004748121972836497	-0.004905692816893736	0.009419394566622857	0.02256724101408319
-0.003506386026489749	-0.007110668477603777	0.01693736206257072	-0.007973943859916229
0.003003309661306085	-0.009053573561339972	0.01743370083417887	-0.03685022562156405
0.01027087108163042	0.01717721804638546	0.02198211133989147	-0.03615629201426883
0.01766361586373916	0.04250773380985931	0.001507731025007367	-0.04296102983220212
0.01791420842015664	0.02246982709321492	-0.02034800201209712	-0.03272822432920981
0.01893654351469774	-0.06944384298424004	-0.05536250521769674	-0.04620773112049628
0.004196282634812205	-0.09983115536967724	-0.04688537317770826	-0.07280674527694968
-0.006304061660129536	-0.07458344831590699	-0.03120746265639424	-0.05727905861083551
-0.00658330547538455	-0.03089678879747719	0.002764351064658987	-0.0353185482686638
-0.001079589214689448	0.04699196856564122	0.0502900693144406	-0.002134836919390402
-0.009760572422876179	0.1534859074377702	0.09490851718416758	0.05654611867013139
-0.01151653944151292	0.07951848203742877	0.02737535742479534	0.1655161528949957
-0.004382130553260474	0.03250432817075125	0.004860242232573381	0.127594849753347
0.003040503853905953	0.009101438103851301	-0.02411225915453363	0.05644817356351751
0.004965182579139023	-0.02028286270971365	-0.06163625633747088	0.01078079767792839
0.005021938480043539	-0.01384204041857777	-0.06600342173088344	-0.008407577639904093
0.002604648878448352	-0.004167754776556335	-0.05266916476883752	-0.07350382208732398
0.01120320682775038	-0.01196804505326714	-0.0241383601885432	-0.06610380331825483
0.0107842222300912	-0.01142183569361988	-0.01032047760423892	-0.05468696540556421
0.01626972157338561	-0.001653167241421052	0.06649002118960672	-0.03369226191168483
0.01597494444927205	0.01002833377318868	0.07382241308474549	-0.04113378607306792
0.0150063521095438	0.02456253775016556	-0.0002077053062735568	-0.02983681349316688
0.01410153777767321	-0.01439513984047899	-0.04242323084571394	0.001543707786020732
0.0185818358547533	-0.07874050380260843	0.008939078854772995	0.01148399881165819
0.03035479471380107	-0.07028089587296617	0.04451686710146655	-0.009631762523149408
0.03728532718950223	-0.02042635851327791	-0.009695394205324523	-0.005382822346650429
0.0274796489800493	0.00747110491877425	-0.02428223346157	0.002719301553319138
-0.004573180963906698	0.08022071956554372	-0.0331422132301442	-0.003545461625672402
-0.02416454552742282	0.1301863014105144	-0.007397244457220746	-0.003453154603763469
-0.02814605029643126	0.02444802245632559	0.002935353800229274	-0.001778736705016077
-0.03896450176866548	-0.02333086063058793	0.05852631764633217	-0.0003271788961143691
-0.0473960140790269	-0.09190133790351993	0.07328977396106692	0.002377722434299149
-0.06051123698820671	-0.1261778001466084	0.03718067003830254	0.009933426254485471
-0.07665667699336426	-0.02007425865135677	0.0273994599340782	0.005886304218807694
-0.05790173493201552	0.02057811380995303	-0.01218569321336324	0.03502618994106736
-0.03200339740927419	0.08057104995149043	0.01494771374117764	0.04857785847132785
-0.01672406016627393	0.08705354761316736	0.00171968036660564	0.05494140038456927
-0.003746075625216739	0.08779329706734482	0.0529987776108134	0.0481017596542238
-0.002773300214504543	0.06348869637712876	0.05744171206423134	-0.008505019392743817
0.02544621250930088	0.03460878028571242	0.01014575454483209	-0.03067079464867854
0.03877095950229344	0.02149531055274407	-0.05644724855061829	-0.00825811431137214
0.05237848127103304	0.01085051175590553	-0.06297323440537118	-0.003853634125435753
0.04538626055914016	-0.00718987863002197	0.00361044309733983	-0.008159549715433614
0.04014364079999737	-0.01471030673353583	-0.02014876099546475	-0.01921099466663392
0.03285540038004468	-0.02261271058209295	-0.0106762663160133	-0.016092126971363
0.01940593262556989	-0.03309054653617269	0.01968650252028143	-0.01949986602360828
-0.001940438004278705	-0.05389287206654855	-0.01983049847417698	-0.005614065356936597
-0.02987314488523067	-0.07911978072172117	-0.05193511459957715	0.01961336281045434
-0.03836621351188027	-0.06965784588167563	-0.05993325279797351	0.00825212957184172
-0.04113160464826308	-0.04479414459840826	-0.07561470654556755	-0.01175158303987765
-0.0363259632343045	-0.02081047098337064	-0.07628054928319328	-0.005084579021971593
-0.02554308677551323	0.02045141792565873	-0.07496277557931638	0.01625652236631288
-0.03821111281996434	0.01105301178348808	-0.01299212921881612	0.03756085224659914
-0.01093198348250529	-0.0393334350915068	0.02319723699139439	0.03398070664341683
0.0191713457653169	-0.02982810471629081	0.05242466443635563	0.0187916438594611
0.0256775741165366	0.02100237665426626	0.02936905271343423	-0.003184424869702333
0.02101007053304235	0.03068887339198802	0.01568677112344418	-0.006984059143406095
0.02056487932880434	0.04357245226049564	-0.0009825629492472409	-0.02088050431216995
0.02258164188529246	0.05621432101641684	-0.02972005508113322	-0.03379207561106242
0.03764578448714742	0.04869528773081908	-0.02898798526791822	-0.03591033182644331
0.04593068037146929	0.03406213833651939	-0.02853467922148179	-0.008864156158570781
0.03877101208557032	0.02397043862372435	-0.01671837241419483	0.02311228140641762
0.02793182825317711	-0.002707210918309217	-0.01204804548254367	0.03023495999116985
0.02755865482762451	0.001051752775598768	0.02554365934853421	0.03725448928934853
0.02478035032102588	0.002656858487695771	0.05175984141954679	0.006865065117146493
0.009434366561801955	-0.02624756299803625	-0.009879236974058051	-0.03605909156497984
9.61333099398281e-05	-0.05253551544354371	-0.02355886422621675	-0.0421021860444615
0.001430751143939385	-0.1019229684349407	-0.04150405447026277	-0.0332240264741504
-0.005103166584611902	-0.1415697243018886	-0.01698995066335196	-0.02569459721353243
-0.0007744071698225951	-0.1040417951961788	0.02199986766867086	-0.02898837064927303
0.003770211953801327	-0.005255623339142767	0.05198999389256867	-0.03636862845323029
0.01143955013131383	0.08186584246562105	0.001090898433830689	-0.02479084353913564
0.01659651789673022	0.1793311352655675	-2.014267615196943e-05	-0.01895625055545137
0.009250693976297727	0.1072793417325458	0.03772314259496146	-0.01923528340581353
0.01156457398566093	0.03583156293320999	0.03106269778590664	0.03624292080605648
0.003024848312752943	0.03479956625351587	0.001465354543289945	0.03991728619826363
0.002132224657896563	0.002489459933607267	0.03056256791771716	0.01926684069544151
0.008592813494875626	-0.01547733173634193	0.04262205902617809	0.02045212354979012
0.01074458239107943	-0.02729183063267312	0.076168953169232	0.01277130347162235
0.00837020888950667	-0.07075548299759771	0.08053270753748774	0.005108439473071804
-0.005049008934819531	-0.06910604025112561	0.04268942434647751	0.008304129062695505
-0.003479010448250364	-0.06001365367279052	0.007385250445471277	-0.0116254046214258
0.01006147689677793	0.01271159923134455	0.004422735815931497	-0.01387684080877736
-0.002428251344555262	-0.02895569227443559	-0.001665001520627033	0.03331705297670646
-0.01498225661070112	-0.05780110202225072	-0.0126663709365429	0.03320805309917094
-0.02787394659872848	-0.04134901099420418	-0.1053584445466187	0.01979262870114258
-0.02652506482613014	-0.0417999298799472	-0.09050174264639139	0.03100600168183738
-0.02054131057154648	0.004929871522432366	-0.03884191922323092	0.083699319915761
-0.01585118497332762	0.07858686330869026	0.006247740680322029	-0.01641892495659049
-0.01717441218082244	0.05244355135335393	0.09120920180336967	-0.05716207600125877
-0.02007969589734849	0.02276821777164161	0.07252992887392476	-0.04660582497243617
-0.02914043916592291	0.04953116292329576	0.02892621699903593	-0.02722207856487785
-0.04470425095243626	0.01003281243709921	0.01301114659272364	-0.003492706129574439
-0.0336986745982356	0.01442847672763207	0.03221302976285545	0.0210430866339003
-0.01901474046051351	-0.004291825388675212	0.03375581478329497	0.06745995367910269
-0.01168450891550398	0.01204945884060848	0.002443870319319239	0.06083639509542597
0.000989172772621238	0.009169106419672345	-0.02707325379549109	0.005356285631712359
0.02363040853911733	0.01729800745859451	-0.03895603154346895	0.003464918451380861
0.02297178991127448	0.01222948995945576	-0.04555342268838822	0.002182107407557385
0.004290028008972365	0.01764392280447799	-0.01256809405540815	-0.01948598764086832
-8.953171084163135e-05	0.01670247372465506	-0.009654705171271285	-0.01429192555357113
-0.0014381212688283	0.006750773847195278	-0.003259648302617484	-0.01939027088094507
-0.01205709723484746	-0.04385074842036241	-0.008765899896465383	-0.0155896017804366
-0.01000755483259906	-0.05228154289628627	-0.01438871791487622	-0.01825610577829337
-0.03172710502065657	-0.01272304932284927	-0.025362484437962	-0.003119600276267339
-0.005705994935644556	0.02818638135361504	-0.03505097169224933	0.004952043138838111
0.01288046948527962	0.01459224761255342	-0.03524701255630921	-0.0145667949020026
0.02145306350896383	-0.02460672178612872	-0.003754417518589859	-0.01603927995651158
0.02353405490703467	-0.07197850987692322	-0.00504508877849512	-0.0186839370818027
0.01629699877909567	-0.06616352016089302	-0.00151549956910733	-0.02375407993397208
0.04247550122179162	-0.05545922701667564	0.005849853392976098	-0.007330207552345255
0.03823126951745748	-0.07470798833075727	-0.004953780395200629	-0.004766758541917155
0.01383716753245563	-0.04696904122632295	-0.01311234589394383	0.003583104583553025
0.0001652306909311034	-0.01278191841779985	-0.01987961354868439	-0.004659960916080136
-0.01614593232947924	0.01569162682129732	0.00345902403986815	-0.003357795875121517
-0.03193927624400138	0.04692291146175638	-0.03782903990292475	-0.006242408125877616
-0.06390434001573479	0.05747228100794594	-0.03818466947892422	-0.005266159621224039
-0.08175058925722982	0.03110474358757391	-0.02863321491810807	-0.004504083973493929
-0.06562296254537307	0.02402073902746026	-0.004412944134659784	-0.003241405953288567
-0.05515707022898765	0.00031005722968518	-0.002521472068923414	0.03280717738378156
-0.06073700057854429	-0.03256807528456503	-0.009494833158453682	0.03892232593853262
-0.01780693139924867	-0.02371401632961087	-0.05039754725035785	0.02987175866249632
0.001772822913217241	-0.006439509096411121	0.0378260512339891	0.04163328874587601
0.0007816021928656774	0.008674638520662361	0.03683037382574122	0.05529936470734766
0.004342322322149622	-0.004001821514466504	-0.03291461972568157	-0.0004164767505932781
0.02858042270377531	0.01122931992247521	0.007763390886738725	-0.06336665424824849
0.01941162104950371	0.04474659416604651	0.06175254750504001	-0.0445944054440813
-0.001604098775308283	0.0763714491914306	0.0500698148299235	-0.02531817301054965
-0.007991277948741013	0.146435429143772	0.05639142027769353	-0.02885852043111278
-0.01384359535643051	0.08684729333986432	0.07092297365176201	-0.03197013493036688
-0.006451322180265596	0.05162285105358	0.03978006020167154	-0.05504977985765397
-0.0005858485267667607	0.06787475873377574	0.01186760229720114	-0.07763993805798929
0.02011310095474968	0.08600666434566426	-0.0103610072809082	-0.05772092517685883
0.01467537730141986	0.0382850025896363	-0.07113089330525156	-0.01395447067460457
0.01921870103423898	0.007500341443441698	-0.08029771760212338	0.02249181656934986
0.04754053230794646	-0.003607912218995027	-0.02941760092491569	0.01092232154021922
0.05535927836729723	-0.003992599118571245	0.02230258929755151	0.02164905681030284
0.05299748572590046	0.0005829764524176418	0.08983249897812669	0.03424768556025989
0.05232382094884247	-0.01002529068037167	0.02188486710640925	0.006372102135582717
0.03416558563740139	0.001839166511900986	0.03416868754689318	-0.01386193496975084
0.03521466279462285	0.0126350472064226	0.04272117919265959	0.009168441586449225
0.02469998540335147	-0.007364341890453392	0.05310530843839232	0.05194507439582406
0.02283780216389887	-0.03351689450055172	0.0276770718772221	0.000761756880855172
0.01567345347644187	-0.04157701227270033	-0.02541595409903453	-0.009154347911628363
-0.005309442742409719	-0.05167568311636437	-0.04479514681413006	0.01899354023263973
-0.008074644329724066	-0.04716561171973423	-0.03436572153321661	0.02829946472225926
-0.001029681858413713	-0.05476652738778468	-0.02306790533890632	0.02689557589847399
0.0007489297625302696	-0.0506171181739789	0.01184939349444054	0.02417707127030597
-0.009409456569348213	-0.04560523722135952	-0.001080258408549891	0.03358209998331253
0.0002557860149325392	-0.02997743286267799	-0.04015960830291741	-0.003096181533809588
0.02118738164525937	-0.03608828334420123	-0.01612845739577975	-0.01760876759642554
0.02319933555331126	-0.04318891210691662	0.007915741017905754	-0.005305821663876779
0.01361475765766306	-0.03845872696734378	0.005296233881602578	0.04432157474087031
-0.001896046941598704	-0.003615441861142731	-0.02383548221865191	0.05282558530949313
0.008814904579029011	0.0324077488293097	0.0002169072458282024	0.01073452739827504
0.02404185807702034	0.03870282752053703	0.01268640553168428	-0.002917045930852917
0.01951028955220073	0.04713808950903627	0.01165989797284709	1.522383137554904e-05
0.02000868490376599	0.05693377762033229	0.01188985218022623	-0.009551463693077335
0.02752522717134918	0.02926899118399672	-0.03071027165022152	-0.001795832870446844
0.02303185910675955	-0.002460469781538311	-0.03614704012005671	-0.009648173260047504
0.01696602760497465	-0.04498173481080427	0.01379645308914497	-0.01346711310049192
0.0222994837834147	-0.04221147584396565	0.007812159851148276	-0.02199742476673714
0.002749451698325091	-0.0256800215633805	0.02278555658632075	0.004032942619940368
-0.01605293193742087	-0.02560593688323434	0.003417700499520797	-0.0008363343244608567
-0.03329577638418001	-0.04234417533066294	-0.007219699225679443	-0.004229126128468458
-0.02549759776146769	-0.01654519643855858	-0.02383503165750902	0.02691270647122488
-0.01727205902454457	-0.005216446553791862	-0.01675815236194734	0.04719168714704901
-0.02698808679512193	-0.01710693933325238	-0.03631117238172922	0.01973348719434452
-0.04237227122977547	-0.02326031708552588	-0.01833244422656918	0.00707228510039931
-0.03628786937774481	-0.0256868803594144	0.001148433421647789	0.006149489594082651
-0.02304792952299864	0.005810959506487206	-0.017947017178618	-0.005881665296487843
-0.002138704472966312	0.06181908400955743	-0.006389997778831481	-0.02468380255983111
0.003494220303799963	0.02690168491818307	0.06092243292357297	-0.02197706198533664
0.001717948561791389	0.01891213410470702	0.04130633303193575	-0.01588314136184378
0.004260661334821619	-0.005665980203241047	-0.01461395769277799	-0.005052925993323231
-0.01034505470049331	-0.02943232852467186	-0.009077171771379983	0.00841446496164712
-0.00675689021780776	-0.05731277714573016	-0.00972563935470715	-0.004843242479320003
-0.01173211273549461	-0.09004343386006138	0.02582053332566699	-0.01153798805265097
-0.02536511135591572	-0.1384199324937097	-0.008468418036598171	-0.006334320368240671
-0.05718901316581313	-0.1065388463423567	-0.002176458201860547	-0.003555735361332101
-0.05451334513735199	-0.05443803165985717	0.006221023376373519	-0.00628058081452703
-0.04458403363349088	0.0453646288183991	-0.01640101742920549	-0.01580138867616657
-0.01368541491877282	0.1814680439903756	-0.02571866152057267	-0.02109850345798386
-0.001207670847317662	0.1639523674173357	0.03232922609743565	-0.01557416187158678
-0.0158490036944315	0.1035919555780537	0.03763163307290489	-0.02424105574203222
-0.001764101972817478	0.0602646401953053	0.005592453303281158	-0.01488489548257822
0.01797715798579795	0.08636822204751422	-0.02616681580977	0.007823266795036881
0.01168445420131291	0.0966957623688819	-0.05399357982822351	-0.01243283058849337
0.005029531559052162	0.0267108937412808	-0.09068288577279827	-0.0243877666510827
0.007463064807951917	-0.005260732568637757	-0.09150011418936047	-0.008441938362535614
0.01929434428543514	-0.01416219059128593	-0.06445535933501727	0.008831115798966669
0.0132251823905477	-0.05188579817448561	-0.03861909790265351	-0.003025206609595999
0.01071419988427301	-0.04443889108447912	0.06440251598316633	-0.01892302624265773
0.02788339313912279	-0.02319943172866043	0.06954741183571284	-0.009236435539842457
0.002603415331555318	-0.02150437323606373	0.05043105929913892	0.03147973435753115
-0.01863801436585185	-0.005300444027424999	0.09197019324614583	0.0316085255657345
-0.007818706416454994	0.04797777135149395	0.1254219247250303	-0.007197085496222863
0.001189170031223024	0.0528389979965247	0.1074771556368109	-0.005294057990258538
0.001241377172123755	0.03181832157931609	0.05291536195062376	0.005642441735775411
-0.01153599997998751	0.02750047324395583	-0.006066756594659622	0.06313742284289635
-0.01483669446648081	-0.01828342085440234	-0.04213316388639213	0.01287657026293084
-0.01925140461374508	-0.0531107700923535	-0.05955866879611901	-0.0005156820147919047
-0.03407555787506281	-0.07055097389404508	-0.06584608296864085	0.0138515055640755
-0.01046902169783647	-0.09150471560736889	-0.06463696640086006	0.00618421568021311
0.008880737724795505	-0.08530620094760244	-0.0405562367882071	0.008460105962904507
0.01226281919437218	-0.08944572065016693	-0.01000686015043034	-0.0129412471031768
0.006132881991256657	-0.09066252328513698	0.02745087860221193	-0.01436272218033497
0.0009888364591816396	-0.07812186014117921	0.07235174890596958	-0.005054195045234239
0.01037991723839984	-0.04075605484888856	0.09255705800699995	0.02616935955379017
0.008084461783882092	-0.02217311780139479	0.07108617567756931	0.02863809024399407
-0.003526124731843413	0.03006611571299437	0.01848654200554882	0.01042340624498977
-0.00283148090503402	0.09260285679718877	-0.02798342639443172	0.01175620522468191
0.006154136667642362	0.2174223007155569	-0.06454727904612688	0.005497119384979591
0.01552497110909856	0.2309135722137113	-0.09317326684751669	-0.05344146830715475
0.01763120495909142	0.09614511999867541	-0.1196522209847691	-0.06173217683746753
0.02477695932778606	0.03076175535498921	-0.1037038878589776	-0.05797140705314836
0.01587977709504615	-0.005099163782314566	-0.07741096382422331	-0.05360251393316705
0.02128357808640733	-0.01898046151164499	0.004180127810450837	-0.05330497248223289
0.02922136426689681	-0.02446241200077696	0.07150896991675426	-0.01003719317423149
0.02615553594893686	-0.02322616662855567	0.0492323721063742	0.006072521184661605
0.01061806794232158	-0.01964987671345632	-0.005474620744907528	-0.005648253602148268
-0.006302829567736765	-0.04141176652199861	0.0001101391485400399	-0.0005237317890884513
-0.02451055612046195	-0.07262595333465811	0.049325603586198	0.0130003507428863
-0.02892508939036126	-0.04575859168076504	0.08232348659582071	0.01755457249596171
-0.01138357125162069	-0.03982842964199723	0.1127119299206891	0.01208066545235199
0.0150283830215151	-0.03584638147068672	0.05238979453654281	0.004520702307318369
0.02577170365682394	-0.04571018899719748	0.009652597131169255	-0.01759314651620417
0.04101236357103695	-0.04660801085056822	-0.0006184493312334565	-0.02659545651172705
0.02490040900687436	-0.05273280313773633	-0.007320352640432288	-0.01187121227180754
0.007673140027651497	-0.03411927078623436	-0.01770440866174998	-0.003737906940988693
0.006869975758012896	0.05348233827863546	-0.02143813404621989	0.002496822659032524
0.004775729976807757	0.1057722879231033	-0.01499471090163566	0.03241032488441607
-0.003237554640218571	0.06480242914462951	-0.02106660242972647	0.1272809604878544
-0.001570785948228568	0.03153030562183215	-0.02799716972697804	0.07170040493114185
-0.00254313694395378	-0.0221495988209277	-0.04493407327490145	0.02518104016604949
-0.04575234768696964	-0.02887188916603119	-0.04163190021291142	0.02755655340749499
-0.05968466749228522	-0.02683242812906244	-0.02179392231762425	0.02868941346887633
-0.04629174369758764	-0.008618036075240715	0.003396093528669328	0.02573635302142671
-0.02194015727819555	0.05319118499802401	0.002568803746387511	0.01867370824596914
-0.02809439441369631	0.06808369492591315	0.01014395321071027	0.01001337738121331
-0.01670055581692199	0.03056646738090522	0.03866781993557333	-0.02415430011532156
0.0301969975674889	0.001073914107344963	-0.00875748099689168	-0.04792055572109528
0.04341508130713843	-0.01480492859688492	-0.003647751020142698	-0.03527394068854296
0.02993372474864837	-0.01889788587384996	-0.01920242818943056	-0.04122272367392293
0.02886549449424471	-0.01703675198126628	-0.01587187202350373	-0.03232266845814021
0.02957626320249129	-0.01471971292829725	0.06109695225955537	-0.002186914870643646
0.02471274396338623	-0.04448072667828242	0.02961442890741648	0.03920095791039149
0.003392684299440667	-0.05309364600855151	-0.01795975627125124	-0.01316246324660797
-0.01280990270591273	-0.04642101316221896	-0.04936825861622002	-0.04620338860444788
-0.05119249417356531	-0.04853897887855813	-0.04360894396935101	-0.04160785334363166
-0.05071223831107987	-0.04506580385885078	-0.02470346596308111	-0.02184265044291544
-0.02855924166267843	-0.01194208789926152	0.0001631499277751975	0.04347298693882071
0.002017019537380242	0.03982742727463863	0.06905717917724896	0.05523408356859248
-0.003961799253289961	0.0594385407777796	0.0744707829878556	0.07692522852786021
-0.01399653872987124	0.09366842610843565	0.05862145904040315	0.04514206662099592
-0.01773894762607272	0.1172884152260989	0.02706336054213008	0.01823879802553071
0.004851263101676049	0.06793789478987346	-0.03540496890264554	0.01015448577188624
0.00143261474841141	-0.01251676110260454	-0.04855576275825293	-0.007070100242380886
-0.01094661307359667	-0.01787542171880262	-0.02189048346206404	-0.01013777014328772
-0.009107032978946977	-0.02812894419350316	-0.02993529980554444	-0.02142388199984547
-0.004990197154312392	-0.02717160683173051	-0.04850919034144464	-0.005017449886489216
-0.0001780355488920373	-0.01730931820745201	-0.03543595892199612	-0.0005418841096826603
0.01307547355543658	0.02489024643000267	-0.01174332213875003	0.001737495307132451
0.03401229164687265	0.006914308478019326	-0.04118614522026409	0.01722397163260028
0.04869713172413748	-0.001348675355084432	-0.02821342887696494	0.03740463079209069
0.05683250534398814	0.002045026511368731	0.03535588368274974	0.05506138430015615
0.03809970659390302	-0.007304955007523593	0.08604770225584646	0.03054988792495346
0.02439037823707425	-0.04169268672389712	0.04485068359065444	0.03120376708781601
0.006841114675788157	-0.0898384351596609	0.02451416058829422	0.01913995353683968
-0.007163407009303667	-0.08632305471753675	0.007007470338838244	-0.04638001223313258
-0.0009066350556562675	-0.1085110442324348	-0.01839582820697188	-0.08002436183746102
0.003060543400008388	-0.110103611209334	-0.04895357036399298	-0.06812025734542096
0.0102871340686932	-0.06681618757560014	-0.04553653494895285	-0.06635373244738263
-0.007330689420869984	-0.01698934426251506	0.00394283973908878	-0.1244756437208985
-0.01673322439837098	0.06796699755048446	0.03094930129006701	-0.09347316921651105
-0.005367246759250364	0.1340654613084938	0.05559487691186495	-0.05615402460165977
0.009982269870234241	0.07611301530625289	0.03444285072985367	-0.03328970445731416
0.01279643208094023	0.07337135791760399	0.04451765613269563	0.01482653506720433
0.03206737637422468	0.09519979502328148	0.0106683167776684	0.01938096287320329
0.03710463710297487	0.08384750438288342	-0.00437947376185303	0.01346441320445638
0.03958402864870429	0.06405431496632487	0.0008223536012270194	0.003152788310647459
0.02301635778451096	0.042768683204784	-0.01035717134119309	0.005603261711036037
0.007184348292981844	0.02997632132267728	-0.009878613348247862	0.003058980898280945
-0.01376986797284157	0.01150452968802117	-0.01605722538064768	0.01320747403970698
-0.02771102705103621	0.001595720595146924	-0.009264609217473203	0.0112530602899308
-0.03355086349816184	-0.008656488362101877	-0.004594256901561795	0.001513958385285711
-0.03130695430746521	-0.03649700262999817	-0.04592567373026647	-0.005915166159461826
-0.05441139538194314	-0.0410658308665033	-0.06375664545515131	-0.01387599232661027
-0.07205123608009836	-0.03557117908796707	-0.04400813942157719	-0.02796812824210702
-0.05273161590688408	-0.01828587464833841	-0.02060032633894423	-0.02531540266387996
-0.01412704908746219	-0.02542966964011026	0.05115858403371907	-0.01666934849488752
0.005465171813771768	-0.0149471022475293	0.03039387295881416	-0.006013820759528089
0.004820297642518716	-0.06572512739989581	0.006418417485929088	-0.004958714464967006
-0.002239107122584141	-0.05401512517413601	0.03090455214344943	0.1021470017742559
-0.03350202956045843	-0.01511600410584931	0.01864611185758216	0.1452248322820487
-0.04048597747568725	0.01312268951411	-0.001365945931749509	0.05758633242213488
-0.0369420300596191	0.04382169989978577	-0.02204998465077838	0.03290211434378788
-0.03601572031022716	0.009544840372276922	-0.01890820437821996	0.04882915759159069
-0.02694246013735781	-0.01124714118457613	0.002566601602336839	0.04743718157638457
-0.004524065761034804	0.009612305341224434	0.002877836142481185	0.03395915592754833
0.01104905501339291	0.03862620354753676	0.03563712189780963	-0.003172181225570575
0.01913688742029289	0.02389450079822751	0.01631560633227167	-0.02820753039773926
0.02359934500761958	0.004546149797136456	-0.01611474146570835	-0.01798073562974591
0.05045126145659289	0.02043248928525023	0.04439486443101314	-0.001669342065481225
0.05163994505570968	0.01187121805711979	0.05214932958474096	-0.01730451227395489
0.04463042394523413	-0.02982996960761294	0.03130916811889297	-0.02374068395503754
0.04927704980284327	-0.04278280952740963	0.008489702070686547	-0.02881847782110294
0.02373366879653331	-0.04528804527746511	-0.01645564451639256	-0.02701330669573288
0.002255616763855451	-0.06751311706984901	-0.01808471387062977	-0.03064118545072265
-0.01592107760671454	-0.04078325715217419	-0.02377657232923471	-0.05081771377028429
-0.04170938689225998	0.06020011693752116	-0.02676908201438727	-0.04287090593168833
-0.02518240166277127	0.07532294784887945	-0.02362252577335916	-0.02794076712443666
-0.02876418469296383	0.03857831930542876	-0.004508655700666845	-0.009266197687952261
-0.0279662982287505	0.01587432107779782	0.01682333852680774	-0.02316259973576405
-0.02250460322237849	-0.05919847941306976	0.01319329222962907	-0.02859633150824652
-0.01342039668641119	-0.0475872573307143	-0.01750144698745413	0.09109819793427745
0.01779571998604569	-0.06022258755773242	-0.04243163355469289	0.08651208513702933
0.02061631757566281	-0.03343567144528129	-0.05174577653064403	0.02152414200800946
0.02693368078231373	-0.003645712462081975	-0.04575402619226367	0.01939668939850338
0.02912794467910607	0.02922981822901081	-0.04648285713393641	0.01504043580024493
0.02164643813586019	0.05314462961368881	-0.04473672178018114	0.01306441193222841
0.0232855242755159	0.07115826619697845	0.002295713989888932	0.008394053641352763
0.0253932223770524	0.00428220608853271	0.03395226072165604	0.01099611689196318
0.01853875405463716	-0.01281487998726889	0.05949172633672289	0.0175048080331452
0.02136802591449457	-0.00731205437704846	0.04205611191393598	0.02488701483868318
0.02251943129912033	-0.009212234988783456	0.01708281481631286	0.02086121273809425
0.005505072786526001	-0.02235877866422597	-0.01357493447759851	0.007787291843979615
-0.01225156166074437	-0.03239773108553713	0.00375785422652788	-0.01281027228682233
-0.01008613308053261	-0.01706436406541325	0.02647002594621087	-0.01948031551241975
-0.002003522715460301	-0.02161572515652782	0.02795271564650492	0.002500203333610327
-0.005328143236848715	-0.01740576824879814	0.002363998721726856	-0.004952820887114868
-0.01838102380791893	0.004064175352771317	0.01810048734962815	-0.01289736022199028
-0.02516040821038954	0.01207049633885681	0.02887032687256299	-0.006512462592344907
-0.02598773236709157	0.009736831206751286	-0.01018991456335942	-0.004345016111823667
-0.02839663665612529	0.0376766758254355	-0.04793428785180014	-0.01347348624077375
-0.02453457872109155	0.01587494486157485	-0.04256668101219412	-0.0150903257953166
-0.01530684826818168	-0.003031223772166564	-0.02306906279771491	-0.01130338728733518
0.005486794426065593	0.0269960650358113	-0.01342356252720111	0.00356093753393181
0.008600066963996515	0.004033478146412601	0.009181594504150337	0.01457044726961065
0.008894288969314584	0.007102496218613138	0.01298109290120019	0.006151330613420707
0.01761895496096618	0.02321356361346276	0.01011308989679866	0.005204818105078371
0.02370051611261905	0.04007896007053845	0.03257792528146609	0.003721425347548486
0.03016329018023094	-0.008700354959673574	-0.04332106651509644	-0.05743883767267946
0.02777094607316105	-0.04263074867424458	-0.06134828970693144	-0.04460034171793813
0.01496790050474954	-0.07098962677014364	-0.07036509237961962	0.07949641216156465
-0.006985367044675336	-0.04627922992330662	-0.05213642059960581	0.07890347424985172
-0.01819361289449663	-0.02053335832089409	0.0534684680727905	0.03844971948260854
-0.03023684537599838	-0.002091868915385875	0.04988971885959354	0.02926304393284374
-0.01464147423095445	0.1134322384336708	0.05206441226045617	-0.03626474940548854
-0.001762567745686731	0.127593743937267	0.07263418252559321	-0.09051288724561338
0.006267260788126885	0.07021943955901784	0.06167647837090584	-0.098076529926137
-0.03007464537371044	-0.0008534696018013476	0.04604168217183648	-0.07599801733889011
-0.03876165777062727	-0.05337371925037121	0.006412173582596767	-0.07876154636806161
-0.04222062583510184	-0.05994366209549671	-0.008091411205022136	-0.06737230758795919
-0.02168375337937043	-0.05048888057420824	-0.01374738299435067	-0.05587461236998429
-0.01274870902739707	-0.0656073415072406	-0.03644051533650498	-0.01468738915183382
-0.03033932080203885	-0.06216223433775191	-0.00663142673462362	0.06147381418660891
-0.0228376848657413	-0.04100346626914678	0.01496725597140328	0.04484439643387313
0.009296603598391464	0.01218293154429574	0.01741828641680969	-0.01475293442959134
0.03559599695553831	0.112559306621856	0.01708641528499542	-0.006835988032752821
0.03466764798540801	0.08642184685067875	0.002467052034409921	0.007478788198721882
0.01994846381578983	0.01580672037272205	0.01099754587178156	0.02440588796577174
0.02838835988371125	-0.02596190387633029	-0.001889109071722927	0.02150263520521646
0.03305961691680023	-0.01737650934920453	-0.0391375404655081	0.005096911742390946
0.02688292857139217	0.0160932341667393	-0.04066021233158504	-0.007210631997625343
0.03937358209875148	0.03757562809607976	-0.03783804444416605	-0.004411623033238409
0.03404077959466785	0.03524729000118307	0.002266705548688137	0.008033462035573785
0.03080554534794776	0.005076542195993243	0.02541780757173714	0.001395969341647081
0.02721835636691802	-0.0659816982267586	-0.01038502589185817	0.005775691077632141
0.01471811674247349	-0.06847280444716095	-0.008857743413532999	-0.006694341837640676
-0.00560545456735502	-0.01750563761328458	-0.01500557197573257	-0.03709566284669244
-0.006605419977819165	-0.00812683475336665	-0.01540148130450912	-0.02170930106704252
-0.006582041188021235	0.02006357343164193	-0.0208457267935815	-0.00799922035882945
-0.01067968095753683	0.03985151894213531	0.02577072375337329	0.07639593883232364
-0.04594769848148483	-0.000110768150681897	0.02012646997068772	0.102525863579705
-0.04848723082278967	-0.01462091286270798	-0.003273617123276624	0.07267890099759544
-0.01983098593382097	0.01217225582489896	-0.02210556092408219	0.04851366209377791
-0.008457357812680852	0.03052580054305349	-0.04737179413433425	0.03580522890744259
-0.007122220321281464	0.03509484289176588	-0.01842799354674944	0.003511426605417191
0.009730524172352225	0.02842053057489675	-0.01652616877833462	0.001243228247773813
0.02025024730052811	0.01751630327154708	0.02038237927233306	0.0008352496789585182
0.02085443555516575	0.01330326424854951	0.003483781173558336	-0.005830208256463533
0.0212909548715568	-0.008122917391193482	0.04909207068414526	-0.0113672561974543
0.007462955951272337	-0.06492195368560837	0.06358801761515842	-0.002383070091390526
-0.009581502544059428	-0.06314222261444608	0.0005901741146756304	-0.01273237804940584
-0.004257408736070676	-0.03792318565685816	0.01294575578404201	-0.01125223556486502
0.03234448814411332	0.07236252933558303	-0.02612505110449868	-4.959808728470825e-05
0.03218287076556266	0.0777865596589358	-0.0126862856200492	-0.001045486135965765
0.009657355232003187	0.03486865736005669	0.04230579525971329	0.003741569052588873
0.008129228723373837	-0.02764786421175385	0.02265189186039721	-0.001273586575704768
0.0196946363728381	-0.05306791624325342	0.03220425550510412	-0.004915820122527663
0.02044263147854892	-0.02217215662894322	0.02337833561540186	-0.02214366268278909
-0.003832578375839086	0.001122927806034691	-0.03470884100512788	-0.03076092396125745
-0.0350206188338307	0.08631153550927904	-0.03331235346272948	-0.02174965886582752
-0.04459969681292132	0.0537312286359843	-0.02840346092408346	-0.02427682349728916
-0.06496988167108406	0.02899290345306989	-0.005990423729750393	-0.01781138609369957
-0.0167713681224435	-0.04779843921245074	0.1257398484221905	0.0129626704415356
0.005035325507294662	-0.03523540021846654	0.05940310219528468	0.05958194396338434
0.002972244332966723	-0.01316836310294609	0.0012899487018016	0.05231760915916723
-0.003939961047467404	-0.02166445148992814	-0.002014822740900654	-0.01674673337973873
-0.02015501530723858	-0.01089940252167203	-0.01446882487736688	-0.01111869545244606
-0.01842641361773396	-0.008466238790004084	-0.03295255115979814	-0.004894825091877174
-0.01668416606295956	-0.01314434503929725	-0.04016706539526491	-0.007277076174223265
-0.01987101976647388	-0.04226116750680066	-0.02590560570033758	0.01315790870088051
-0.02085946195794762	-0.04065588628079853	-0.007469140447487639	0.0557846056404711
-0.02530438703070632	-0.03753378857631279	-0.02914308704230216	0.03855802544901285
-0.02939630235010471	-0.03358718421010728	-0.01133331326379619	0.024998779826681
-0.01309446007017154	-0.08183687597267787	0.002590355969049603	0.03000947616615196
0.004691344152523269	-0.07550638122366109	-0.02477168692481861	0.01182651034088269
0.03128636585417089	-0.01939808250039027	-0.04979059117687294	-0.008401536817680145
0.04585946837922075	0.05376446982349033	-0.02879034410069942	-0.03567437555445913
0.04874137564633096	0.1298056861343984	-0.02532967908821494	-0.07460695371102871
0.0206227102200645	0.08234027669674794	0.05949486136305804	-0.06326113077094656
0.005339907959386334	0.01437212813347309	0.1073558169178439	-0.05729437541112768
0.005768652693484114	0.00846878558087096	0.05410580437367087	-0.04888875191436584
-0.003844260718058569	-0.005599772862783107	-0.002720209062650399	-0.04003696550700152
-0.01856166097897589	0.008409402662160897	-0.02839692860384592	-0.03196833695579697
-0.01546327642293387	0.007373844480714306	-0.01530088037101638	-0.0203883879476021
-0.04080302677142108	0.01515892946563846	-0.02956858380554014	-0.01187262382810231
-0.05820221120243405	0.002057758055495456	-0.02087126726956993	0.002058447467770587
-0.02488864927666709	-0.06615318168771071	-0.02670152613277691	0.006632670267844091
0.002816390927123674	-0.1115261625256817	0.00313032787769277	0.01134391171227173
0.01208462254865916	-0.09139015373230389	-0.004244067860557283	0.002285623051438901
0.01670285724212294	-0.06812272700210513	-0.01643657551926025	-0.002822563751109273
0.02280809520517773	-0.03337058311441081	-0.0222386436475949	-0.01379326632521463
0.02598396128043034	-0.004642831156525125	-0.05548022721274234	0.004126454168074769
0.01694857369464205	0.02735670394765307	-0.07207383017238517	0.01630207992761131
0.003988517264799077	0.04349656200829468	-0.03027742791525104	0.01963806678167277
-0.02637567390480955	0.02634224812255922	0.003808607827896768	0.01164866836498505
-0.03899720363827504	0.01211949180064634	0.02794981737430256	0.03581695748861911
-0.03895814092902875	0.01589290950202899	0.02945762052684763	0.06160848919193329
-0.03766738688201578	0.0225323359885956	0.04133784495097751	0.05295214367884867
-0.01063011012255671	0.03904545114097734	0.02354708249353603	0.03502766897919066
0.008180687468331144	0.004475574527755276	0.02226442119895118	0.02471500823306781
-0.004659248384197284	-0.0360290588973717	-0.005073001753205177	-0.02022188030257127
0.0002953249380172216	-0.08820585617850647	-0.05727244289566847	-0.1005332597649688
0.01466680525734228	-0.07400693610039072	-0.08161689051093889	-0.0803274021028041
0.02668664807608345	-0.08251678459593209	-0.07648306277158842	-0.03452662320801261
0.02212593585384916	-0.03827568797344288	-0.05346435475322583	-0.04285929189994868
0.01988041932694853	0.07998038298691179	0.009164387243777812	-0.0722418561974556
0.02506821944774124	0.1383737399080572	0.09962168354289636	-0.05850559680220124
0.02219081560961918	0.1481087637800267	0.04767060047252216	-0.01896271926468834
-0.0002334939199565799	0.1313212395929796	0.02187160033463987	-0.00571188880856491
0.003324336468262939	0.1057700877351127	0.03911160920325965	0.02914399246230543
-5.440140125092176e-06	0.07008092192254627	0.05642956023214506	0.184692509190779
0.02617759584330519	0.03667683335666849	0.02092864565457133	0.2042133386866228
0.02507191817633751	0.03540084293389207	0.006759448640695353	0.1249579847210887
0.02328338274059376	0.03606514625958581	-0.0003971146078497616	0.0598725270964145
0.01491398787477118	0.01829756096721518	0.005196486708811242	0.03758630103735074
0.02023221660385713	-0.02321862309304349	0.01864834068912972	0.003401743844134407
0.007807615683327288	-0.07424641820335041	0.01807646166089	-0.01034481066189403
-0.002160939069847658	-0.08626273870131025	0.002602885731201765	-0.01030916488452711
0.009928606023206806	-0.05655815350376095	0.0100274379372828	-0.01797113327040719
0.01511638239134028	-0.03660678311323658	0.02055872822527654	-0.01183750470360973
0.01590833126471848	-0.01243073326179143	0.02444684776054199	-0.02959236518047097
0.01425569753931221	0.0164350602698615	0.0236449339080031	-0.032462439254814
0.02719076976484054	0.0316235516836367	0.01248240410346855	-0.03068007892278559
0.02228796089275379	0.05892677513349277	0.00366699135308288	0.0026217928802633
0.02193943967198396	0.03641125272898282	-0.02078052262638088	0.02342113901993103
0.007175202801186374	-0.0369011960636136	-0.0299737799518697	0.02221153625371099
0.005534026133772818	-0.0172042729193331	-0.006192921184028608	-0.01908471460235546
0.01312811315939618	0.07230426075066942	0.03979944872300616	-0.02723756394244992
0.01200605301915821	0.05185598961084251	0.02183239273335601	-0.03125542810750588
0.008659506193616997	0.01410806858000611	-0.01273625365649951	-0.04156662935042016
0.007734511797103313	-0.01535058838574811	-0.0182746120865956	-0.02669635498693602
0.01018404824632696	-0.04032125579900377	-0.01631131998439306	-0.01794580752333285
0.01030414323592556	-0.06339476349469593	-0.005468307069960572	-0.05786903473105654
0.006289363756921851	-0.07508503384957237	0.01981769496272846	-0.02893359472098886
0.00304014032282184	-0.0211815856805256	0.004499090075704261	0.01257225815545241
0.01167572854350123	0.0005427510934785587	0.007168556372758613	0.02238009249175768
0.004175389530702225	-0.02373235315211348	0.009167673822658073	-0.009088072425355158
-0.01820435160236535	-0.06535588716888044	-0.008992643082394784	-0.005150236447975497
-0.04025398762727928	-0.05117765353770241	-0.04298727358928743	-0.01536265422292767
-0.03522572775280907	0.01149447131768889	-0.04412900128628625	-0.02523786342820192
-0.01953140544832708	0.04106916762391447	-0.07660647055937964	-0.03870161893521747
-0.01292313374793064	0.03690769408589403	-0.06982424237998743	-0.03109661274296864
-0.01629652358340255	0.06519020870812542	-0.05984301229440785	-0.02666564097294952
-0.02532779694223243	0.0324374848228238	0.001361456835102698	-0.005958146814684557
-0.03597956921036295	-0.00843033142770146	0.1527322647417588	0.03414520636357705
-0.03541129556726718	-0.05715971080502041	0.134835017659421	0.0923891053004243
-0.01124032610398373	-0.0957702963069216	0.08404282469190802	0.05992759746184256
0.005351992369632117	-0.07019396081540873	-0.001606088459678723	-0.000787555405003323
0.01752042304371968	-0.03489625085200605	-0.02095202699267152	-0.03375348320995131
-8.176426373526994e-05	-0.02360792558914397	-0.05207660937765726	-0.04821425881657203
-0.01126303301151186	0.0003289637597777936	-0.06309793056625276	-0.04066253235723943
-0.003397405613611115	-0.03445483762864165	-0.07894180438469481	-0.0009280439538064144
0.008075372717786607	-0.03200842807513625	-0.01661936714229248	0.1366246394159162
0.003832395485073104	-0.008648493383499328	-0.04015983776959605	0.1186964604070989
-0.006407924598881881	0.04915243033237066	-0.03075737107690408	0.05959817352048051
-0.03136895310613259	0.09324888402020977	0.1228106583663202	0.02810629766475316
-0.04479211741313221	0.01871372977318529	0.1188957506218834	-0.007160097255777137
-0.03385833268504244	0.03498435902455165	0.1335810737592633	-0.03538351328366602
-0.02332176082410471	0.06518610272252544	0.06775112083976585	-0.03783821155566722
-0.01432163845028222	0.001932266457839307	-0.004081354768617543	-0.03494806546270654
-0.02738437622654296	0.02708691390621321	-0.04678775657854518	-0.03252017637185298
-0.04225978926519709	0.001464081224140429	-0.05659897902404561	0.003732994993434964
-0.04494449379743959	-0.02547693966038883	-0.0363789388467721	-0.02989945078972371
-0.04786117744778808	-0.03961287152379168	-0.08545652344813465	-0.09705766348491983
-0.04483117369244764	-0.02573093159011812	-0.04202633965463614	-0.07671663724654812
-0.002365327146403898	0.007322289157179409	-0.02562693459032618	-0.0001115201293761892
0.008068880939322003	0.01559069438494013	-0.02060851999474364	-0.0001939920019676215
0.01757432063188314	0.01014639805537414	0.006480110623962738	-0.009370380208550229
0.02051590527522136	0.009365905695608117	0.01061323022002369	-0.0260456180074831
0.01393916021041611	-0.006664315413144468	-0.01703869979090453	-0.01813909737934266
0.01923269209868115	-0.02327775144097905	-0.005640316090200705	-0.01894971642326791
0.01253681416304815	-0.01730856418606586	0.01145339655599202	-0.007094337985485091
0.02037477638618791	0.008993702197208124	-0.01057456912371707	-0.004861908652554473
0.005730069750517749	0.001066726246266189	-0.03245553240991481	-0.008268765362281456
-0.01064693625924834	-0.05222009527437355	-0.07846754986485144	-0.01172376280574689
0.01125703741536043	-0.04789321678196918	-0.07890709429631143	0.008715195817397922
0.02083776865842895	-0.03106792903304437	-0.02033977186091292	0.02248330338394277
0.007913642201917207	-0.04510924895568828	0.01411055185673577	0.04381267875432295
-0.004700668570511092	-0.007893822141529795	0.02656047313308089	0.0351475173763668
0.001360933664255715	0.01179514744826436	-0.0246610263354942	0.02771251283878024
0.01320731405666652	0.03206397060946824	0.02408003045393204	0.02031231442759871
0.0236516722925409	0.052488067131944	0.02220528884681406	-0.0101563137884064
0.02709220366194056	0.09023729249412037	0.0009413639980259266	-0.02035840140940939
0.01610078327703168	0.06474604579952739	-0.01925742960722374	-0.0124167058656448
0.0110739377238714	0.03498582302823396	-0.02621199638941321	-0.02511197760832077
0.006904228464179975	0.02972347139499901	-0.006358521118929835	-0.02368409891577888
0.01966399630865574	0.02156935995683927	0.01902495453103218	-0.002359093403968336
0.02710077237996638	0.01252420415436649	0.03848612631729499	0.02828189420423035
0.02718600499449027	0.005976965345795216	0.018755996307267	0.02245592635947703
0.02856811396146854	0.00739285603024227	-0.007783807277150016	0.01407339355805181
0.01533586452732993	-0.009182150841953386	0.01620670321341331	-0.005138031745322723
0.01260743414387881	-0.01469191140290679	-0.03488040508785044	0.000798496975108892
0.01915133377332062	-0.0295952572698038	-0.06206835620479453	-0.0005529721903120372
0.0252998543683611	-0.01556682024065135	-0.06075962641721926	0.007098437744658456
0.01875053209774767	0.004953095609039684	0.04415237684174421	-0.002188712019582719
0.0008922735392959989	-0.00106550286240813	0.1242079380269846	-0.007448587535264007
-0.003475719704578968	-0.04665946996761083	0.04688616549257289	-0.006955251331668935
0.004559732807578473	-0.07758918309147937	0.04411886789357525	0.00911348618249906
0.01851077579705336	-0.09494157273520376	0.007275264377393054	0.0007911719723988983
0.01292101067011574	-0.0648585568569449	-0.0180632625046131	0.0135906053599325
0.007251058686846239	0.0233503138364703	-0.01874055787866113	0.07664104711446697
0.0209614161558011	0.1155806891529413	0.0006884768293942498	0.1122726640284074
0.02969106463221594	0.1053579937103748	0.01912675818281357	0.02096534480477902
0.02433161091868294	0.05905670775720161	0.0584013017303006	0.02320623760384124
0.007457449926083012	0.04058370956539237	0.02593235186754386	0.05243562166248052
-0.002933394969440015	0.004973418378327911	-0.001001262096049813	0.02951921190212812
-0.01373334222311566	-0.01528360252748632	-0.02222564594701636	0.01133180866656976
-0.005386872396762607	-0.03882740506453917	-0.003473871668429347	0.004087163265992077
-0.006713792956337278	-0.06906255213596536	0.02494615809349016	-0.02117537326122174
-0.01439422912110121	-0.04286695964245253	0.03537489410542469	-0.03686407845619601
-0.02465924483766131	0.03998509652175401	0.03678668934724579	-0.05579839865950417
-0.03349690383613024	0.07465011280968226	0.02245643452484973	-0.04946240190513938
-0.007107409135350701	0.1422672432163098	-0.008733554246443094	-0.04631293307546053
-0.002700030179515055	0.04802456606618473	0.002005995661620102	-0.0308623473941011
-0.008653639800835011	-0.01310011601802791	-0.03056299778262505	0.004206943276752044
-0.01881490297190892	-0.03470579263485096	-0.03379771388106009	0.04750088871341204
-0.01828561582026028	-0.03705057471801759	-0.02082940539855341	-0.006349093834764554
-0.0160331246778489	-0.04632961994985595	-0.0375813259313647	0.008940726945399602
-0.01699468960931333	-0.05957044730874142	-0.04448305922502532	0.02588166482820171
0.003306073628781081	-0.09876522509878088	-0.03847738642059774	0.03373232194615361
0.003439380393740128	-0.07884317910498088	-0.05194206757975377	0.01446518952293793
-0.01530632035600401	-0.07286975567358722	-0.0250673960671127	0.02480487242388775
-0.03135905198965097	-0.02094869323485569	0.01830773722148555	0.07879568641359933
-0.0454305710449547	0.02715850993846509	0.04498483721791125	0.02164579493019549
-0.02944288371373826	0.02347349156349324	0.02334415320123606	-0.03260155810808887
-0.0394758280175803	0.02755774634582479	0.03269975893486822	-0.05123178076405642
-0.05225380673140163	0.01691413585477121	0.03032309794670714	0.007656517106798328
-0.04652391546436656	0.002283035669029178	0.02407412239201642	0.02469383431040529
-0.04295125972999293	-0.0005302910590326576	-0.0255901140560066	-0.004177500169666339
-0.03885776090148915	0.009946597061385879	-0.04070121197219379	-0.01617505267671107
-0.003008847211273444	0.02921799856837331	-0.04164193638104309	-0.02553386151600419
0.02080513182226762	0.04195731653283351	-0.006969359946294888	-0.05050057260903922
0.03087054930146538	0.09859035808066448	0.04509605400959417	-0.09155281399872942
0.03051667428061392	0.07525481968580275	0.05839631518037333	-0.08707808497728675
0.02429390061235901	0.01032578772633473	0.03894866162777344	-0.0460306692825997
0.01383894891390684	-0.01549370460757774	0.06654902965527054	-0.004980983484503712
0.02780596259359476	-0.05014402273441196	0.08090561394821372	0.009445078684683748
0.05054904495934397	-0.07806209653774397	0.0006575243460285631	0.01053280759929162
0.05472314606344211	-0.1088697190242953	-0.0441206044347232	-0.008176232201881486
0.04684245297356346	-0.09868444503931993	0.01193901909582379	-0.009238092986166256
0.03262896081607426	-0.06124644685680052	-0.005439349709140577	-0.006961842167521271
0.01582094785793265	-0.04122194555639302	0.01237215434724656	-0.03135937439404158
0.02048166937693864	-0.01875450239050578	-0.003858553765068929	-0.02707534186095533
0.003352189000438593	0.01633710764570529	-0.01332771822182581	-0.02349415342110782
-0.02169730225656158	0.004311184617150248	-0.03668052128025224	-0.02787814218672779
-0.0411205184735693	0.008259617892303051	-0.04374427253663725	-0.01993232861895063
-0.04974418688831627	0.0261613787396067	-0.02091540955750111	-0.04499718570845013
-0.04204196170786105	0.04908832116722471	-0.01094002412024722	0.004175725522771604
-0.006570933539899193	0.009879672515186965	-0.01944806886224509	0.01863064470651012
0.009553065483699646	-0.01076177064297594	-0.02072309773272115	0.05505909302278482
0.01282767465001841	0.03750060178314391	0.01616175692653245	0.09426376790220652
0.0128781617756829	0.04978161748066093	0.0138725175597508	0.05799939856815963
0.002955562564015037	0.05452385937607073	-0.01853496105673236	0.01107615495485096
0.008869960337444699	0.04205316436192254	-0.01627497062578276	0.0270558451836331
0.01051091313377807	-0.008463446332697239	-0.04932819856444243	0.02443206043393249
0.02198984903200477	0.001992307111289641	-0.08492701357731984	0.01690236760827837
0.003766648428118962	0.0308346298467864	-0.1000076134636707	-0.008826322984805117
-0.003490685712754125	0.02559830534299627	0.003167588263179159	-0.02227592364507795
-0.008941370183929397	0.01912653617003588	0.1259429828451704	-0.01549640661508184
0.02003325565347855	0.04159794586170538	0.1189625263145926	-0.008962002074393443
0.03104368254745619	0.03449430147592549	0.09912464825985065	-0.005900669192476242
0.0240447271243993	0.04026119647031343	0.05372573328094501	-0.009663129658755935
0.02762006646672835	0.03107472625952172	-0.006921418329526274	-0.007570164735350455
0.03472898926440264	0.01319185350200736	-0.04035614691949772	0.00823759098456227
0.03826402927405038	0.01288233224368596	-0.05182880906144862	0.03921002659688597
0.01582392891079475	-0.002448712109485725	-0.02808576453546343	0.05579366710055556
-0.01055456018615616	-0.01013948299734722	-0.01268369635480582	0.05265577048705333
-0.03875970445874909	-0.004109521093978541	0.02208195842907338	0.03970452747474341
-0.05698696082741612	-0.0006675876269541024	0.009444788123751366	0.003852881948303704
-0.07597537215481413	-0.01394507365160218	-0.0204040158910277	-0.05350248557385958
-0.0607246247437957	-0.010269542598008	0.02220829653311894	-0.09338639650598582
-0.02439286520864773	-0.01800850289360139	0.04390020549021442	-0.04662610865264637
-0.01142348258487385	-0.01629072600259227	-0.01567409202208173	-0.03257908941952434
-0.005453034366759909	-0.05449159622964268	-0.05037911377365388	-0.02190040833265145
-0.002293738702667672	-0.09663630463139258	-0.1202283090959379	0.004127852550081544
0.01169280510938901	-0.08913023308559172	-0.08451381117903708	-0.006259177972795903
0.03074013551987334	-0.04090484232584141	-0.0160890145309175	-0.004497893262430276
0.04142958257816347	0.009040223843654495	0.004146444692084839	-0.005631995194465237
0.05274552600706842	0.07193747044237232	0.001571990273093545	0.01008039081514269
0.05012541604251685	0.0826439806421094	0.017000532846571	0.03397004183234264
-0.04261315518731384	-0.003278962430318962	0.03296700162993444	0.04695862168471825
-0.01929646206000478	-0.01399881662465831	0.01187296513616452	0.03427018938686397
-0.005812167239386562	-0.03173723279263288	-0.04944139178867657	0.04254538468873894
-0.0130738287463271	-0.05964254522400186	0.00426410955129626	0.06268759184593006
-0.0168609720385942	-0.06101887347864317	0.01631511152990859	0.06576230363617704
-0.02022477602512674	-0.02468582588102705	0.004407108187856607	0.03687805190104403
-0.009465821353565067	0.03270850090026108	0.006818384112988827	-0.01708979299742772
-0.0070576256013385	0.08363551096630861	0.01333963597611697	-0.09073319088362403
-0.01716120577070633	0.04481948080376881	0.03324063772413807	-0.08656979472744669
-0.01291533179398945	0.06869365322916965	0.008062589712640657	-0.04080655708054438
-0.001009702936014732	-0.006302688430254924	-0.002838312915312685	-0.02306146164392859
-0.001983120567024676	-0.07519675466450035	-0.006392669250381303	-0.02681080400457113
0.002693826945661759	-0.06543621353956167	-0.01175531982012131	-0.01380370878870112
-0.004711745127846885	-0.03783671866713077	-0.01195521624442419	-0.005528886659266755
-0.006875667942355055	0.03252245777840473	-0.01165131066442504	-0.009812175808994116
-0.003238217692786823	0.0487120793427999	-0.006119265761217689	-0.01970832364201626
0.008346549171348843	0.05180827387602274	-0.01280435980265533	0.0001446293669621805
0.01124499613866583	0.03055823159706791	-0.008745777169123692	0.01513666593151394
0.01071134531961195	0.01700380393233886	-0.008637262784212158	0.01416868305125987
0.01877355833044573	-0.007636476205616151	-0.01054433666788242	0.01071219804289299
0.00513016314675824	-0.03160299738236063	-0.02907725859283891	0.08667852621680477
-0.007272143410647232	-0.02936486759703245	-0.0493390329584089	0.06145164186552397
-0.002347050401005515	-0.05976930300172059	-0.0186404940806543	0.02438779759375069
0.007427413322412255	-0.06896580600409409	-0.05442295528043935	0.01820115062402269
0.01911180810617133	-0.07380000821139575	-0.003866218443360909	0.01357741980835679
0.01696073615883435	-0.05771883158944666	0.07429510082491188	0.009102851639712948
0.02216236563271202	-0.04479976370991776	0.06063489898317816	-0.01348518149699542
0.03535667085895487	0.0227711228294845	0.0314608518837039	-0.03271157323589499
0.02901267462856381	0.06916393352878596	0.006421757997380538	-0.01887323695932903
0.0118291747958322	0.0009290713484554239	0.06320430563947496	-0.008170637199275405
0.009725599583106178	9.934762948039479e-05	0.1123596859186644	-0.009462811177115699
0.003221398480419757	0.06306973786708184	0.1269988115358276	0.003614845220157077
-8.63072612197853e-05	0.04677421853348425	0.08914141121951182	0.0429518409642053
-0.007189213633835745	-0.003755633703481439	0.05558012228970949	0.0587055285655711
-0.02051292983049537	0.004240200384057952	0.03033534644101363	0.02423904296082575
-0.01434953376887639	-0.01214310926242044	0.03662817281723325	-0.02832868305886611
-0.00889969658015932	-0.01045737351401573	0.03007069976703415	-0.02660976725858724
-0.00771281556725994	0.01374016258310482	-0.02821468011579134	-0.01949365006231103
0.004911171591231002	0.08179732768097964	-0.04836926630331139	-0.01756093545407252
0.01414386559306982	0.07419765173808299	-0.05601668520794231	-0.006953301849664878
-0.006282414193599871	0.01461827581501345	-0.04134643140520439	0.001246229801205968
-0.01157119204698736	-0.006868549720677772	-0.06240046491615204	-0.008551117837127973
-0.003924557157841648	0.003292570543740906	-0.02840898280433415	-0.02716857087799155
-0.002596066125758053	-0.002609247109002571	-0.01586434847388314	-0.02509460672697366
-0.002396404391925744	0.0155123909783306	-0.01893243337649356	-0.03883053212447277
-0.003126517115479077	0.02525075061107792	-0.03356261478669621	-0.05233652407472009
0.01073041178031532	0.03708877242371207	-0.04225639960509422	-0.002295394737150004
0.0312225688964481	0.01412640240395242	-0.006541530447470427	0.02146389115664173
0.02763057941881143	0.01700225275940536	0.002564725679448077	0.05109671063368623
0.03411464190883962	0.01696637701903285	-0.01454757855925615	0.03770237386656825
0.02891093972361506	0.05359833257621783	0.02558904726749249	0.005445864079675732
0.01843180053265694	0.04486274016724368	0.03875905485585031	-0.06549430610773935
0.004226905720630495	0.01206241778536453	0.04630777015145801	-0.07232624652106862
-0.008456433426193949	-0.01413478304014869	0.03663960643169908	-0.04245071752582983
-0.01970271742746126	-0.02980579846539692	0.03529196997092537	-0.01688665283105974
-0.0479351757464889	-0.02658922360331663	-0.03198274684461971	-0.002463911689665172
-0.05320361893070016	-0.0112135478010746	-0.04778541142653571	0.007797978398249264
-0.05153531865025498	-0.002594504443973608	-0.0182938022934879	0.000582684463737386
-0.07167795498334723	-0.005586774689468076	-0.0504043103348629	-0.005637234469379127
-0.05849557358853878	-0.01335110376060815	-0.05372808278270053	0.02110532851818556
-0.03681206254824775	-0.02003387364156179	-0.0409026732733602	0.03098660620568033
-0.03236127913252188	-0.02016096790740647	-0.02546853368113761	0.03991628759843556
-0.02243636031973941	-0.0167859757021072	-0.007036998459493505	0.04341303492280166
-0.008886088113783051	-0.03276575336736776	0.00159934607279318	0.0347909286294146
0.002378310756742309	-0.03665571676720908	-0.005371043406524705	0.01707327154351329
-0.01564042076420215	-0.0331102471646268	-0.01702761999785198	-0.0005499219998441021
-0.0215595278727801	-0.02566233689957048	0.00676347644195683	-0.02847456670417176
-0.009830668651037749	-0.0694541890716389	0.01788425256814963	-0.05215954262676977
0.01022986883145679	-0.08327791066700606	-0.02501144486189696	-0.01250450681416383
0.02346563624315623	-0.01847001776548872	-0.02443835286827298	0.002397901561653245
0.02190822301131712	0.0144061138324322	-0.02362553146899758	-0.01620061313466548
0.02237798283845534	0.03605213559559613	0.002496179323152243	-0.001737966978533507
0.01841267926972319	0.01045036813823084	-0.007247707218514576	0.007075766410918746
0.01827605876017776	-0.08241786707007667	0.009191476534696463	0.02028397532353492
0.02180096433961913	-0.07539842510485208	0.03027030314896185	0.03046314704438341
0.02062000633222361	-0.04306220632821927	-0.00267069172246685	0.01477662575168397
0.0174244275582218	-0.0385242579805661	-0.02458669835105354	-0.005303703169063541
0.01896922356398498	0.02352906410104414	-0.02844792927950357	-0.0003619895767946693
0.01523134226648244	0.06321680433807642	-0.0296384907853308	0.03589031491241629
0.01096156498768537	0.03695810643048662	0.04778677149541496	0.02672138213834394
0.05465150469589142	0.02281740723593687	0.06070384041734283	-0.033920337515277
0.03678391050204803	-0.006587754815384233	0.02192180300503152	-0.04794399959068332
0.02726873578493858	0.03782057094808006	0.007515013469372878	-0.04381861753017565
0.02901111790178462	0.1039951120340957	0.04260959347761515	-0.03980748169864645
0.0106736873191821	0.06274761296121184	0.07513965977183072	-0.01784522661384701
-0.02061260695645952	0.04044530725689398	0.03590691746446117	-0.007352293643910291
-0.02423123546155185	0.03390823035839099	0.01491797253449336	0.08063242943345204
-0.03175960517099174	0.01699698486798519	-0.03437498275649728	0.05586510842254887
-0.03698955128886194	0.02603332512798061	-0.04458866167654232	0.00712013393683229
-0.03567693081699673	0.0168838991865714	-0.006662569468515192	0.005824103351326582
-0.006732600605672598	-0.0009738493953233051	-0.01685557353209972	0.02323009645780173
0.0275518105016874	0.003437094236818294	-0.01015834129855452	0.02082519071489586
0.02729074999397694	-0.007098871860613752	0.03597904074456314	0.02550068781180819
0.02795326859934882	-0.02250330955680159	0.02405668912128713	0.02731261299927757
0.02337095986575921	-0.04990977932547093	0.01439622944136653	0.009850039498835046
0.02571784442697554	-0.04770320085666328	0.04560200905270313	-0.005520231111274013
0.02491023288932866	-0.04069750103021676	0.0355903350961219	-0.01703616107316638
0.02219497432720383	-0.02705836635371818	-0.006472092854363565	-0.01859506423418549
0.01528495653638357	-0.01366308182482156	-0.02574456040987839	-0.01383987864510417
0.0006010281295632057	-0.005658833248244168	-0.02705592204668481	-0.0006370466319650423
-0.009165611117213982	-0.004878450484054191	-0.0178478961585281	0.002722217583070228
-0.0231054777480482	-0.01169435835342262	-0.01221160766329526	-0.00482433402231942
-0.04846747223295571	-0.01174492781426204	-0.007968172205849064	-0.01294148603834259
-0.04137039244792968	-0.005271894802326548	-0.01464768017165305	-0.02274836181976438
-0.007123793511704028	0.000818848631814637	0.01544384650222467	-0.02227473961137055
0.004005674697640271	0.005905488485066559	0.04158322057916577	-0.01409395111636298
0.0135375505363568	0.01748447619297138	-0.006664721175489571	-0.01378542376803766
0.01317304037949845	0.01943556237840194	-0.07198587025877104	-0.006331551209255128
-0.002678091861352075	0.02270494276713023	-0.08238387565778342	0.001988495753734318
-0.01508873999007946	0.01599628126055122	-0.03512530490408106	0.003760531231358268
-0.008168486345179542	0.01072074450247734	-0.02056834069840986	0.002538687387349838
0.001996837408462545	0.01549183028655778	0.01576610247873429	0.009022940321631024
-0.001243012120839458	0.01038769771958739	0.01593405700034654	0.008680496537656936
-0.01434497083295426	0.00446661448355049	0.001464550762478823	0.008828182372279701
-0.01393888754733624	0.002174530201226411	-0.007349944114307868	0.01002412741948214
0.0004012969528349925	0.007778874681799759	-0.007091264965112894	0.01410026179342539
-0.01252844562379554	0.002771837879039253	-0.00197417039739197	0.007711667817111013
-0.008335997738905794	0.004395591539730723	-0.006806897060125992	0.01041921889982754
0.003528116334318984	0.00523191897473629	-0.01873885462930885	0.008916132385057956
0.001483780923193565	0.003115670786197046	-0.0180921824176103	-0.01890406799622643
-0.01664746252944485	0.002282949890147535	-0.02612700767643972	-0.03052390269296412
-0.009371119717611686	0.005627016842417138	-0.03467710193970686	0.001318068009017301
-0.001921546165663471	-0.0004862661914325289	-0.001174281787426516	0.0194194299781711
-0.001431116619478644	-0.006146192136270824	-0.02231596686813444	-0.0008049356080195477
0.007536881124459762	-0.001109303510689589	-0.03952135921409668	-0.00171320680372836
0.003630600060319337	-0.003297101900709289	0.05272910385413077	-0.01407341223062819
0.00408772854667072	-0.01222928954799136	0.1509898309724669	-0.04208491516890494
0.008350953801054127	0.007379821769891328	0.08644181292997269	-0.04831651511353534
0.01358036169399515	0.007457261557839204	0.01117843050341784	-0.002700868210017064
0.006269681368690222	-0.005960732967036521	-0.004830975386161276	0.01200714521260348
0.009896345119892482	0.001493895407156277	0.01973260336226668	0.002884468169495098
0.01654292491171046	0.01890072475192839	-0.008921765154207374	0.01876061859002374
0.01183168536284857	0.01839252581486718	-0.05465892537668663	0.0281075739982842
0.01280880807384734	0.00830095178251385	-0.03752238348400173	0.023883359118708
0.002939831093783543	-0.001260315841760782	0.08763168471934119	0.01660821451390116
-0.00700790267269375	-0.01309700819327765	0.1238407440773469	-0.003983883461773153
-0.005825008423195078	-0.009950582169571206	0.07225450629966754	-0.005109228022654291
-0.01284963585263034	-0.01240567365340092	0.01244753448144628	-0.02777995139211837
-0.008316072003263163	-0.003742995510513688	-0.02984336136862039	-0.01607575273765277
-0.007950292077332872	0.008277750087055492	-0.0785856772880993	0.01377926911330964
-0.005734678641581279	0.006259280829679119	-0.0379200345478938	0.01230301413669244
-0.01165005139930002	0.0004366393841583059	-0.01484125426375779	-0.01725120801275304
-0.01803672312145482	-0.001780571873195194	0.07202992627016198	-0.02363018029560781
-0.02205304028143228	-0.001161447033817929	0.06847814031173644	-0.01579651547182925
-0.01949746489091088	0.005634648302364908	0.02949532874783138	-0.01259721264513546
-0.01478652134201508	0.009936177408959515	-0.001727560108062064	-0.02677468726979188
-0.003961045024751561	0.01030996128340603	-0.03657995061929153	-0.02502981007557882
-0.003371592115025953	0.01278544078218502	-0.0619142054508618	0.03388641705454767
0.004398649674638434	-0.006438723716909765	-0.03900063313685067	0.1463559180584476
0.0003248310794453044	-0.02752511138163551	-0.02368195142027529	0.08647589140514596
0.004350769787040102	-0.02858833062574343	-0.02223769272819339	-0.02047975996998664
-0.004117843180425774	-0.05538614359834673	-0.007091313965468757	-0.04290624063999678
-0.0004188437546313824	-0.0876572296633417	-0.004591162814175276	-0.0412577277668479
0.003307362653760293	-0.06446651458625262	0.01917882591093728	-0.06225477024393384
0.001431594580365736	-0.04121375196281403	-0.01900600459965034	-0.06213779668149055
-0.005954725155542592	-0.0252956410184223	-0.009440620496637639	0.01139788700133217
0.003973034531858324	0.04292200455158727	0.01941192474736394	0.09880754208051731
0.0125030028373369	0.08021299743391179	0.02053540935337086	0.0313075603846306
0.02705347546506716	0.07495504826631554	-0.0391261748599795	-0.01947732234965291
0.03618459489531448	0.02504605900862018	-0.0648192370694631	-0.0054447204389169
0.02605973182007189	-0.04408131992151126	-0.05095983571131545	0.009649849698627224
0.01221823812157328	-0.06552330459256361	-0.005403525768042452	0.01885865813639379
0.004681814043460016	-0.0398794542843987	0.02224396741104704	0.01029909109308349
0.01283148728504672	-0.005519555878653066	0.02427730652580135	-0.002144883974871553
0.01358379888750189	-0.00604398651692237	0.01117822099285343	-0.01079187329239261
0.006504444328996875	-0.02173109668122284	-0.03093277329376336	-0.02468407797079002
0.006908252416707912	0.006614201800882322	-0.01083706540858781	-0.02990551466680608
-0.002287073317001106	0.04245251065568078	0.02451470889633278	-0.02048484664017823
0.0007651389793727833	0.04181218772914941	0.01894938113643134	-0.02106907996359016
-0.001718872140938494	0.002956982343259254	-0.03500347013685359	-0.03430955073420592
-0.007192975584932368	0.01260679007759908	-0.09378440630892222	0.02801597699776739
-0.01444129221824539	0.028505218360667	-0.05641030094315194	0.0656879068673373
-0.01194276524978049	0.03452543029489026	-0.006452927430240956	0.005369410522838024
-0.01400073181304346	0.03689067433351914	0.1097177789839353	-0.009337432833787249
-0.002714727947089506	0.03487943801108224	0.02656714232608462	-0.0152108655755422
-0.008500674831580336	0.02174538222850935	-0.02460219980969289	-0.00533653485397697
-0.02387001040422725	0.01097110095764632	-0.04183157173389906	2.256228419374194e-05
-0.01265507345390222	0.04582599463542616	-0.002075767868323091	-0.01544746147945072
-0.0003122385535689649	0.04818247851061446	0.0247877700941915	-0.02260768628413494
-0.01453498539631939	-0.00186850749769543	0.03026027647615256	-0.02328020660890278
-0.02301953842625514	-0.007279376401324982	-0.01635331234191134	-0.03500669658301864
-0.02772276148599744	-0.01518823799223908	-0.01286485134630961	-0.03091400488779806
-0.01475318334326165	-0.02138563874722311	0.1057468215203696	0.001871844877024623
-0.005229998299650579	0.01719022773003045	0.07601054262512563	0.04817891949043351
-0.001939629087746528	0.009202362408867428	0.05402805521436006	0.1046769668102645
-0.003647232620342456	0.007505430913430508	0.00105343865933625	0.01090866901562844
0.005073746610117369	0.04294977255621189	-0.01310323567836226	-0.01290450927946894
-0.006467527686618957	-0.01070510272476635	-0.009335497667480428	0.01668032175354504
0.004415417511306158	-0.01877475716730843	-0.01900010702419542	0.01410046988815089
0.01721865709036252	-0.03242802958763839	-0.01576083893352514	-0.01908097649356903
0.02160456733894461	-0.03808453072126494	-0.006317767252276189	-0.02497403220176829
0.02049733352634212	-0.01323978247071768	-0.005109945827406859	-0.01356347346622124
0.01755156506663078	-0.006964624743718367	-0.0003610489020363189	-0.01459013870116106
0.02059373226679577	0.00429615197488978	0.008257237725825138	0.008881685036156592
0.01548430545263964	-0.01449682383314214	-0.01713312266118399	0.05024417235111659
0.0004153083309781926	-0.0630092254252691	-0.03151139886719624	0.02375085866106217
0.004513638112450272	-0.04992186912615601	-0.04881070625649851	-0.01956234354589619
0.01612233833709612	-0.01395464452932235	-0.03975955094843892	-0.02080898892521141
0.004491984454833929	0.01295589067986665	-0.03665222693827182	-0.01515897160146007
-0.01210453979684834	0.03354199590972384	-0.0521867488759253	0.002826129138568566
0.005783831177144733	0.05166608752277273	-0.02306015035310514	0.00680974821048567
0.02298098887199456	0.05015111387218619	0.02564259702717512	0.01088672446606712
0.01258700594532254	0.001215057889068802	0.03152806152499875	-0.0001373227735127275
0.0004249876626592913	-0.02152809731995518	0.02846259155265863	-0.007454522509190107
0.01065408688803347	-0.04358989288302341	0.04782129411492906	-0.003272066066859471
0.02384767692793178	-0.0197402280999901	0.06029624218638389	-0.002944385214816572
0.02163580942819007	0.02989375277821449	0.03051191072901435	-0.00252912534166112
0.004456752196612864	0.02624512709973961	0.03699135241254482	0.008822535102898708
-0.01867939521086984	-0.02490584836210632	-0.00841746714169898	0.0004689289798131333
-0.03303168633855808	0.006363363561995526	-0.03437830340341037	-0.003762471899234822
-0.02363559836345864	0.03149558828292565	-0.01421766406007607	0.07605226099677914
-0.02054616036093008	0.02434631151541389	0.0192787804959675	0.008216410341364222
-0.01418028682864061	0.008010273618682798	-0.002278597588561201	0.0006176236010231831
-0.01045163316725212	0.01223358664893033	-0.01002487422018873	-0.008343253643375986
-0.01524760818660401	-0.01879230950850645	-0.01330019730626718	-0.1014034994552648
-0.004608554969354762	-0.04392527621481186	-0.02527839683391221	-0.08327162105068499
0.005199325166218361	-0.04568396796294466	-0.05019731547072893	-0.04670415615150328
-0.008040457678417302	-0.0217948965743266	-0.06579560918095689	-0.03196552909035368
-0.01904887058516036	-0.006425757673162964	0.01535978686175374	-0.03253464121645802
-0.03571195249083781	-0.01754665537184339	0.03143015595235962	-0.02169116472416117
-0.04067610987011356	-0.04454941622993498	0.04492991143864414	-0.01297457665265491
-0.02705630170302492	-0.084130920988005	0.0392502925577999	0.02174916610029084
-0.01538564753156934	-0.09334746475895581	0.03064458062274582	0.03352272962434134
-0.004748979263700953	-0.07825461059447959	0.04841922269078214	0.02925982013537278
-6.811686622267281e-05	-0.03295512717114221	0.01179684491072938	0.07214260593207196
0.006302357576972704	0.01046584034515795	-0.02555661079635008	0.06465809208536055
0.02236552247224446	-0.01529580860928872	-0.04418218001851735	0.002895499997295144
0.02500620358180007	-0.03295103800027047	-0.1097324583070668	0.02162599312665091
0.02113894297084387	0.0217560330581014	-0.03396803876812882	0.02833219349770634
0.02419753400352342	0.06709904524820105	0.09377306062189031	0.02627299043329466
0.03576643505121546	0.07008652316475025	0.03517239497946389	0.01572828160111713
0.03556664393482922	0.09158423840909591	0.01980162569869436	0.02010138836954773
0.03392855529208105	0.07712632761652762	0.01875613151817231	0.01269006971788184
0.02470018967267685	0.03302653226643199	0.07894576757654903	0.009063577346268541
0.01847275819386175	0.01383292054380773	0.06944996807170283	0.004776481814820705
0.01153146655331533	0.01682445798146443	0.01100495998800972	0.02770275043957111
0.01056916593487003	0.01848375290312125	-0.005040142521664964	0.01626622473268358
0.006351198304874028	0.01988619462690009	0.007824847769165439	0.00336211735476775
0.02351465192540768	0.0162437949185493	0.003134656908121914	0.009362499333969083
0.03374134478315587	0.02548038008393396	-0.03685139793665527	0.02761249534501985
0.0281978903474664	0.02766432554323	-0.04100707370338047	0.004960297984473665
0.02279129112039256	0.03497700650611776	-0.03847403913064788	-0.03238824251486707
0.006988880801780116	0.009936645191659595	-0.0008380488383649628	-0.05302116237065955
-0.004130943797281461	-0.003290232560401958	-0.01332819708649023	-0.04020891767675179
-0.0124206102240893	-0.009196936505701596	-0.03122625132849466	-0.03123472284055742
-0.007248291872448756	-0.00966296218674061	-0.02220863282318676	-0.02596912958147091
-0.009000146078167555	-0.0006700509963988352	-0.03412026280980924	-0.03456929067586057
-0.02359167985544253	-0.01011630530920556	-0.02872199193074845	-0.005863408661027726
-0.02686092441807122	-0.004171990350313187	0.002360035614925631	0.006375896966599293
-0.01610481513709069	-0.002931183238488198	-0.01205734911366141	-0.008818159007667185
-0.03634080300152605	-0.008959180033797372	0.004614704431013027	-0.0191473512764022
-0.05987711747963475	-0.01156621321651895	0.0007970432301960177	-0.004794008678195157
-0.04975259866594182	0.01716058139212419	-0.02240205184594253	0.004927631045527104
-0.03336951463151503	0.03338458047335496	-0.04450119055795041	0.0192719567958961
-0.04948120917681754	0.02107131396941017	-0.05028983958170009	0.01304396923260057
-0.05083087062357165	0.02006157829066276	0.008180207293841798	0.01708640112849527
-0.04079693571552402	0.007649474765508263	0.03478674971565988	0.005056257277017722
-0.01702027604151345	0.006878129053770941	0.08101411930852559	-0.005189046737618903
-0.0206102743626279	-0.02226999133374698	0.05024553661949129	-0.03080166146931511
0.01161648562097849	0.006478969686305494	0.01463902374399727	-0.02965547158541029
0.01405031539366514	0.002371941036082141	-0.003142553621737186	-0.02234656247390405
0.02019818854910498	-0.01731418151825677	-0.06145765625950628	-0.005592998107213469
0.02648298769945065	-0.03488564528951194	-0.02435959785051169	-0.01979552443053918
0.02029085149943883	-0.03841672220505626	0.01412944670974606	-0.02280102550831114
0.01667265013179502	-0.05839219160436698	0.03048389324169414	0.003467295128043185
0.02370550434634254	-0.0432750197634373	-0.01191999473320969	-0.01212206250662937
0.02315420877097844	-0.05391569763236698	-0.03542877025006102	0.05232787107095972
0.02314147410816194	-0.07626973636251962	-0.004820088806997766	0.06608181682186488
0.01697962190579779	-0.05328900914331758	0.0150583716821224	0.03937815080454613
0.006228383416441483	-0.05432694694112022	-0.01002639434184055	0.02432564216456584
0.0001394265339626298	0.01964599569678271	0.02940714102730204	0.006870277025395832
-0.0008372143749151615	0.01906110494807774	0.01394976810034912	-0.01909335323578391
0.004553382390109657	0.04962732814325264	0.006829747512013703	-0.03062800140569201
0.02188074199373207	0.08823891123999167	0.02251647926264865	-0.02370415067239585
0.02390453569082638	0.07932211537828625	0.024153044352053	-0.01734801052067772
0.02099249245700971	0.07862494455804574	0.001653049184672672	-0.007425787183753929
0.01231337477681002	0.03457558361059036	-0.02706324219808197	-0.001546282963779986
0.008913835225027977	-0.002745950951682557	-0.03024679460742243	0.008041613129924042
0.01769828099660236	-0.00563526582099014	-0.02475579360778095	0.006730039915096831
0.0121709657091096	0.03009064128233173	-0.03547504102970137	0.01130620105726257
0.01119180831378812	0.03690296074934751	-0.0168510471541714	-0.0003071662174731911
0.02337514179047685	0.0108651645782623	0.03871725966565169	-0.00780314670755175
0.02988285245473773	-0.03689552150482542	0.0386332192119868	-0.03580015936492493
0.01050113896285802	-0.05265573991270066	0.05372040472168658	-0.001993325190206132
-0.01794910788837659	-0.05430467311071329	0.009235717010683077	0.008494850130406293
-0.02548464176569329	-0.05281460698201932	0.002423329314053539	0.005207904015182277
-0.03640113463045026	-0.04973700541422472	0.02837457952951293	-0.007352318758908948
-0.04183343185883318	-0.010840225395032	0.005229533616818932	-0.0002781263646181222
-0.04028670193244677	0.008018791421168474	-0.02635970145943699	0.006109876299389032
-0.05199800150307032	0.03677946791241543	-0.01787346612452054	0.01191930040643945
-0.05331131107218483	0.01656579178286703	-0.02648583212975448	0.02135062000358311
-0.02128676666878287	0.01304344477925458	-0.03803604959357369	0.03241086262636034
-0.01198632286477132	-0.002168545133661249	-0.0305743899859833	0.003730067086046073
-0.02663740143039655	-0.0154739215040533	0.004856210217226362	-0.01972568689497899
-0.03073835410497322	-0.02822550208683235	0.006122687388703825	-0.01101655805102956
-0.01636100074827279	-0.04248354078848237	0.006794068530263212	-0.005240366445084227
-0.0007953382434267848	-0.03117476555260192	0.02067530100077915	-0.03133738704632646
0.01860099669638393	-0.02291260118294939	-0.02607165648150891	-0.05807942454048938
0.03285046028938933	-0.006046950449035311	-0.03709267315896949	-0.06959360606940136
0.03701040758690668	0.04393325467649207	-0.02409611022020738	-0.09283757374983616
0.03936235192248523	0.03911110145783211	0.04912950167325762	-0.06551752077409992
0.04063165827930486	0.01468449754173351	0.06123625367260154	0.003742872343430608
0.03958567507082793	0.0294837035313524	0.04421583531193145	0.0841702593591102
0.02640174963476144	0.004799618312056496	0.03568865003056493	0.06980321166656335
0.01314753512860676	-0.01113896831588984	0.003154450728840996	0.04477077052305945
0.01715252720826229	0.009324290284501003	-0.002592487208245679	0.09594791083984994
-0.007011498015002243	0.001331087849379657	-0.02959573882956197	0.0377593177609843
-0.02674290912454832	0.005387135457447671	-0.05550138808765971	0.02681753852595243
-0.02422195917066021	0.002508014454347176	-0.02646806409173329	0.02777663841750372
-0.01725291768107659	-0.00297404371574092	-0.04738955955140423	0.006788205524558714
-0.00615207357147651	-0.03824506900171719	0.03083301201069089	0.01559217467044639
0.002033036397460032	-0.03384979982572899	0.07881870352504504	0.01674623500525603
0.01559674809998419	-0.001996995203457335	0.0357814247417466	-0.002000977863742319
0.002294370892468572	-0.00416315195757779	0.004903246100147017	0.007571590492251633
-0.00287708385151978	-0.02960336255044142	0.01772938413484977	0.0340613095693218
0.02190894516532438	0.05353626501253601	0.0007981389918150614	0.04172824355327457
0.02715051765148577	-0.02941793995450096	-0.01342234978362674	0.0256036931588345
0.02555111860233303	-0.05646766765739862	-0.01714756754277157	0.01835036638927667
0.02955008246412207	-0.01895512465030825	-0.03373149689470505	0.0104973425212778
0.04903728853204479	0.108099549025521	-0.03205390205257113	-0.01322467754616136
0.03680621488059099	0.1526027238821931	-0.003758048251660975	-0.0337239035972825
0.0129687694886305	0.07428926520510007	0.09604575292860926	0.001115832152976213
0.003271212368996127	0.03960146487191746	0.08591684569365513	-0.04571386480286266
0.001435257100959978	0.01912560910990157	0.01745130046944836	-0.07303286056134521
-0.02390463196607928	3.377850854850897e-06	-0.01759585056050445	-0.04472936010280697
-0.06056215905540606	-0.005560632716910581	-0.04303087056613863	-0.05133291841801241
-0.06067732664284264	-0.008332807669207586	-0.03592521665918083	-0.04782543534349895
-0.06347448933120808	-0.007357092227940928	0.01701488231963539	0.03345233223142791
-0.05649042348944475	-0.01244227452582899	0.006474404444173953	0.09179777827326271
-0.03527059471229764	-0.01022485282632215	-0.01814780984286169	0.05120619296750842
-0.0115547268259215	-0.00050839774713001	-0.01429226213717622	0.04206560352604416
-0.006981722965717021	-0.006062096118431205	-0.0115855460030081	-0.0001949677772149394
-0.009297494721879502	-0.02458922245007192	-0.005007655485602779	-0.0698277583869871
0.001104683547661045	-0.01386257778079163	-0.02767241447230862	-0.0754460760989569
0.01065961528357686	-0.01257921021886962	-0.04632310581151074	-0.04319447282405154
0.01895727374603422	-0.01061338211042309	-0.06174503376497316	-0.02558101601805362
0.04051348397849786	-0.0009939777946412803	0.005298377478983706	-0.01273772323156151
0.04612229650147141	-0.002895872278178845	0.01038554335509576	0.01959658223149431
0.05372079797322318	-0.02123714667430998	0.003317060239115454	0.02829847714322992
0.04448271405112977	-0.01979631220876446	0.01034827541541156	0.02200853440093352
0.02502594417698752	-0.0148586416864135	0.02552053435915723	0.01384909058837488
-0.003951210396817274	-0.08230921402133895	9.710313192062289e-05	0.001307159653410681
-0.02171211849561594	-0.1038614930640857	-0.01980423598971423	-0.02259793122746
-0.02853636122069132	-0.01548143143402935	-0.02230061918302193	-0.02908109457852467
-0.02854704060234898	0.009682552063245605	-0.0630378468724751	-0.01933508529986028
-0.01372702980638543	0.04194244434401583	0.002077829487949857	-0.002037064037754169
-0.0311676022523302	0.04303323578507289	0.04611006873123204	0.0151828618989031
-0.04925934575601693	0.04537277081902264	0.03091802114351505	0.01008738703710177
-0.03511268314412893	0.03120255732787751	0.02025294518213759	0.007713683181504068
-0.02143137676536248	0.02197102075554094	-0.01130677578182784	0.0086246529193567
-0.01900569061063762	-0.0187968428503515	-0.04297994775868041	-0.004887398148693755
-0.01074402752253543	-0.009151642867836811	-0.04512587419561595	-0.0241665004686242
0.01315720852926066	-0.02193512272509513	-0.03158601831489207	-0.02602033204798804
0.03135723858433788	-0.02235924694420702	-0.0345478286736877	-0.02240577018794581
0.009842699475184151	0.006184251050256441	-0.04609814195482736	-0.01263758274729495
0.007920545154748704	-0.0237525287515651	-0.02434793512226727	-0.005163610704789922
0.0144650651101772	-0.07043763009603492	0.004155521457275667	0.006204736415151067
0.007963710792734204	-0.05506206988526564	0.02053483225518814	0.01523759381502242
0.008654304765125589	-0.04073041962074501	-0.02333792055497651	0.01528686556762494
0.001836623297741474	-0.02151269626056308	-0.01167693913534093	0.001790770059977435
0.007521376664394459	-0.003694909537665117	-0.002354188099884893	-0.001497435087256507
-0.002804143048160037	-0.01573061561730211	0.02548407349189276	-0.01298022807149499
-0.007356188032263461	-0.0159499412452993	0.05308909736991802	-0.01203864197441185
0.01060423151161119	0.009451455253985115	0.1042708648453936	-0.02197753679606705
0.01146879003789581	0.04686747595436593	0.03909441122879427	-0.02675422571683804
0.001742280369322878	0.03028389111165542	0.003218596799540937	0.007029578072869093
-0.001947989153348292	0.02755093764739772	0.01063006178126864	0.08851865630144841
0.005547365743705884	0.03365676144832871	0.04279769547952817	0.0556901818034078
0.008724285283685554	0.01127755349117161	0.0343938538772109	0.01899547417839895
0.01652793649570453	0.01652281726202478	0.009627844234532525	0.01757395290979498
0.01206316597339779	0.06253171919633334	0.00738651891927455	0.005583463469063409
0.008872088345076634	0.1188997441048552	0.0213921376238699	-0.001758168879545434
0.01149884643846559	0.09733204876002052	0.02200660410389563	0.01774457239357423
0.01209308709369684	0.05553409364022325	-0.01832111274321323	0.02524725325959408
0.01438614189694615	0.0008529463585316524	-0.0005898334670326016	0.02631831884371809
0.003467523012045933	-0.02496993012036049	0.02047802044657451	-0.007621985994889384
-0.002573376294398277	-0.0302524339491221	0.02256037213072209	-0.009701692293688656
0.005771920080564296	-0.03340828748772642	-0.01426312298341684	-0.01852944590466862
0.01198294670598177	-0.0230047657789562	0.01564933675181921	-0.01104924219170259
0.01149337907952407	-0.04707296979800542	0.00196916168567543	0.00159255427836836
0.006912648487422494	-0.04643670385355732	-0.001955077072487179	4.896985556482789e-05
0.007775777389152486	-0.04060614565095489	-0.02404991222090432	-0.00167902824926921
0.003729674708627948	-0.0273733698686002	-0.02131485420222283	-0.01184370525031341
-0.001381729480243765	-0.007531876929410198	-0.03400822558237166	-0.007500903234317634
-0.002500860434930495	0.0565336062085587	0.05471990744183042	0.0305726556611536
0.003939818503098247	0.07270454077884737	0.09649702218817391	0.0702829448128478
0.01177309297210297	0.04137929029762929	0.07358734564530928	0.06017436523939049
0.03237284096418863	0.01396396356343815	0.02559900727379427	0.03622235242911322
0.03481539183697099	-0.02737534134116729	0.001389113063105583	-0.02769193206354928
0.02471226679979142	-0.02167240247589786	-0.03303221250534938	-0.1261377993514301
0.02010253577984052	-0.009574306148540868	-0.09243409798583638	-0.1331994352158376
0.00631123989398791	-0.003687835057469694	-0.06976340884459883	-0.04935315271295231
-0.01680993635352495	0.007944991195465512	-0.05642541424731846	-0.04218612966768576
-0.02927234364947664	-0.02233224241235108	-0.04366910280722357	-0.03759987435541746
-0.03510675201672863	-0.08738156684280995	-0.02330955810591172	0.001298778127363701
-0.05455753526584912	-0.1217561201800999	-0.02986687337702489	0.0972270457086319
-0.07729865093067773	-0.07905831994858729	-0.02971821465108767	0.07007273944889592
-0.04449206433952494	-0.01257883537937911	-0.002857014967826363	0.007686292071389764
-0.01173050914593523	0.08506315264554695	0.04090514311365959	0.001391347995723055
-0.006680221600419522	0.2270752204592499	0.04270280408375116	0.01100080024070017
-0.003475937197759364	0.2138764480622843	0.0292592215684782	0.02404385176392274
-0.008127182911411915	0.05731752212012736	0.00245303251699914	0.02641250238474532
-0.004004698609463873	0.02200815100623622	-0.05221238972140275	-0.0002551552727516859
0.005106824439549759	-0.04961777413784545	-0.0506682380312066	-0.0137476753164594
0.0001373949908510124	-0.05270431055096331	-0.008059282494950687	-0.04494587102690578
-0.0055142235699081	-0.04378988756942331	-0.01817059089416984	-0.07076806375384889
-0.004924024737455034	-0.03245881709580428	-0.001671207798498123	-0.05098268441141079
-0.01686469739501235	-0.02562398951952225	0.02877245470175496	-0.02950855349766709
-0.01536580634827846	-0.02085766478814951	-0.0107009329162645	-0.02109441210875473
-0.007030911828161839	-0.04102338325926674	-0.01640769645638178	0.04343369090142923
-0.005662260904978397	-0.03292059562272617	-0.02040435204952304	0.07312740037461875
-0.004561809975434612	-0.02154833867982102	-0.03173250378564336	0.01981650719898134
-0.001613235984162678	-0.02378313125719836	0.02568041089310908	0.01540370213214947
-0.005494123709945663	-0.02935914848110341	0.07450298124360653	0.02033562199814683
0.0003293152110996505	-0.03163200751644594	0.04822492453460672	0.03376799670528707
-0.009312229662765658	-0.04353150058497849	-0.02596580829674745	0.01096336364334615
-0.006439763734880012	-0.03730922386942391	-0.03705087809407261	-0.01215637148253161
0.02633592909399037	-0.02382199058940858	-0.05283455785296032	-0.03192393308459077
0.02791514097073471	0.0323806262208862	-0.001162012569119062	-0.03832077331365258
0.008947828314860493	0.05455010663194636	0.0715287629278597	-0.02302412853745157
-0.009428352412937165	0.01180877536417844	0.06994695574526265	0.003370254686604227
-0.03489102559909669	-0.02715780246847553	0.04093330913478002	0.01493199060737455
-0.03344762313706091	-0.0285584121338932	0.02991263321856345	0.01471196567146805
-0.01943075638121823	-0.0252881219890004	0.009043160533226062	0.009294821654391482
-0.01318188044583726	-0.007297090307628937	-0.003468903621255673	0.009364834662825498
-0.02237028429802258	0.01775972101710832	-0.01651976349153265	0.004442287995087141
-0.02873185680053875	0.00375860394823389	-0.02142945898565692	-0.0009153873201300498
-0.01919215626511531	0.00987165669848819	-0.04895325399712697	-0.001519398236940091
0.006894695320234371	-0.00702576855054659	-0.02996118684072161	0.003295693420973119
0.01880656673616987	-0.02730791300343292	-0.01884300011254408	-0.001817537703848466
0.01448654375416049	-0.0342192657891045	-0.04194393771160129	0.003322541022344761
0.01486217049351803	-0.03870549837263332	-0.003488624329828523	0.009971709177850504
0.008324094915910048	-0.01365473888948729	0.09443056392565678	0.01705596595250462
0.01305844819835906	0.01494239702779823	0.08814571760004478	0.007956225862854884
0.02287382726016991	0.02372223842158171	0.01925342629929934	-0.008409505144890769
0.01782164691881229	-0.0299700014665238	0.01203908980003006	-0.003651072902158727
0.02414348685259758	-0.01890021870200729	0.0008388774215072818	0.002772344158305464
0.02888320456863149	-0.003527010800174526	-0.02288989968079561	-0.005452606276383105
0.05246799910247549	0.01153338225360972	-0.02676063920812831	0.005935607401201652
0.0620516127094352	0.05353810277698127	-0.04661720968002053	0.08119349094186543
0.04987982215116899	0.06472650905305576	-0.039944318776935	0.03439253646410573
0.03898062225861037	0.04639411576032939	-0.02309809301490329	0.000589586828236053
0.03711628082345286	0.04758176560903724	0.01249451146890531	0.01346665475705625
0.03163805508667857	0.01396077370632823	0.008046021898563118	-4.89698711476764e-07
0.0204529728352817	0.01191534902789955	-0.009536109101522952	-0.01391919857720595
0.01124162683114052	0.004570378771563684	-0.007634390585144664	-0.0274974931099179
-0.002132938062571055	-0.00946273962824715	-0.007104082229125192	-0.04134274246202613
-0.0179732275078754	-0.02201809092091589	-0.008434903478630299	-0.05841352554035738
-0.0100120924944114	-0.04565841464529476	-0.00545019910508578	-0.05220172156607047
0.001903395693883817	-0.04681122343211327	-0.01472353155216484	-0.0125686709257091
0.008601562857448723	-0.02180046758994286	-0.0173816404950136	-0.003420592092791953
0.006457144924465639	-0.02483844810840713	-0.01129292339980619	-0.008938508218167329
0.01311697255563825	0.005501624367115928	-0.04275445927869326	-0.001388634884376549
0.01030377539020457	0.07285696468165492	-0.05172183201662375	-0.005706408653436594
0.008414657763396749	0.07116836931078503	0.0116159042139768	-0.008136523392484012
0.003062521469045139	0.04326979844985947	0.01557358566346232	-0.01264384885492713
-0.004477058606039253	0.0319198308193555	0.008078052200106385	-0.007012303487863782
-0.007821224953161501	0.03403828783365772	0.05087927075074165	0.005200969597310781
-0.01501919301122638	0.04468401660859648	0.06209723429351181	0.03597577334395891
-0.03554559282204163	0.01513159132314823	0.05381012525107375	0.07825762067616029
-0.05573590286035056	-0.001572431507617536	-0.00926972060923297	0.07586894336680668
-0.0576195589605074	0.01493653823140135	-0.04773777002760232	0.03902126734366312
-0.04692003419939188	0.02811843705766824	-0.006954553462250737	-0.009362110262321335
-0.01877619547357948	0.02008964148524433	-0.02116134569996348	-0.07123115778855037
0.004362225533070732	0.01553563401225139	-0.03123966648487761	-0.101098560872063
0.03206926178752722	-0.008271428039045452	-0.01803419457374979	-0.06492566629904192
0.02607373202139872	-0.01668637157255579	-0.05216427066840314	-0.03186545670750949
0.009151976594048927	-0.01720727253641105	-0.04039334817808411	-0.001510814736302374
0.006073663944246348	-0.003669046853942023	-0.03540994958521271	0.003921332483542071
0.008401010718891684	-0.001995947430109231	-0.02160166796063643	-0.001890937333320922
-0.007624957092733495	0.006822773691021989	0.05928859795102555	0.009399674841801797
-0.01813417198349671	0.007975726203820402	0.05835227679093459	0.01726699494834233
-0.03600690672609332	-0.02533686402796489	0.06051019887267851	0.04048714172219586
-0.04856228730236138	-0.05370839758965399	0.02529439312134961	0.01896276832886734
-0.05980563693910134	-0.05333745966546592	-0.008391456793766247	0.001246047978511311
-0.04673942480216127	-0.06950974315793967	0.008979672241635761	-0.01357934251922303
-0.02391230428605662	-0.07872209410264748	0.02043772913554128	-0.02926299913052356
-0.01401411128326192	-0.009006118700028012	0.03810514848878466	-0.03112943667406977
-0.02530446444234225	0.06645882592250214	0.04971435362420499	-0.0225016069868744
-0.02589508329980439	0.06451315826925859	0.05781505375652329	0.01388373269385274
-0.01277755752753755	0.05904568154054145	-0.01840918826382099	0.07959419516037472
0.002731176382095202	0.07613634184785648	-0.06064058661069797	0.04764730939482605
0.02523197932288278	0.04304118727330696	-0.01070511717270997	0.05011299735128198
0.02612906702086396	0.004149692399090341	0.07721749890687513	0.06416576849754134
0.04134752348981862	-0.04033991699561061	0.07440874479754087	0.04026704625042738
0.04123709783635584	-0.09578894453789773	0.04946757120918932	0.01764611552134039
0.03174727682923489	-0.1300685121724457	0.0003242632558547644	-0.007484979244341815
0.02377720554708215	-0.1144038763745641	-0.01067846177373172	-0.03042099706037808
0.01814241044111457	-0.07191449613097957	-0.02848970274209816	-0.03446440766399343
0.01158654394585005	-0.02719302162170865	-0.01330219699948336	-0.04165354438820019
0.006812657097270814	0.07914666297103712	0.006010286261936868	-0.0425418423659713
-0.01148229562049265	0.0434520837368386	-0.04092528518814185	0.01101191597938908
-0.02332043829732459	0.0249028222527951	-0.02981715385047099	0.08902768993204957
-0.014706257596911	0.02740014842611628	-0.03336989196199512	0.05756018154289801
-0.01247657604321624	-0.01158065288224332	-0.0203241119509314	0.03659397040339095
-0.01073971581609493	-0.002025649463121143	-0.006641135427247816	0.004880707375779836
0.0008707271453096817	0.01486336581121101	-0.02747813194375937	0.001507321457615878
-0.0006586040933911139	0.01044418074418405	-0.01257178383887746	-0.00626196677484103
-0.005720792972943051	-0.01761466522871896	0.03935646474198409	-0.006774594657328666
0.001488206851446119	-0.02440501339153517	0.08985582413120582	-0.01712659779486121
0.009939485836437422	0.002351588716744329	0.02815774430621196	-0.01007311712458706
0.01781887803010234	0.0332567248681852	-0.009226799959913167	-0.01053424503709833
0.01176945445916255	0.02381945517194195	-0.0004630189880579019	-0.02763600814636571
0.003022125089214284	0.02335613189812963	0.01459995073839065	-0.03980386646948942
0.008116927380076477	0.03702523819818553	-0.02131459100022606	-0.05284796865299963
0.001789779076625746	0.01369407642524762	-0.01245295386250862	-0.02992428850734444
0.00468529938872616	-0.007159039447614233	-0.01401435014968669	-0.01709007317132719
0.008386177998169892	-0.01060100207841626	-0.0368706850611029	-0.009271939687566785
0.004360439829723202	-0.003546138549999845	-0.0640217869800295	-0.0006930355703856912
0.004209944549415562	-0.0001421861693016853	-0.03595938221494595	-0.007007618418843166
-0.001101604529581141	-0.004327617441581615	0.02492282159426702	0.01859399818631506
0.01025047965773735	0.02122890281742449	0.0005967019562864095	0.0001024204456490337
0.009064927845321293	0.008042844980287423	-0.006402722370498998	-0.03765556137275481
0.006506594883506037	-0.002585064165482936	-0.0006788534377064801	-0.04245556409626601
0.01585967826818119	-0.01170573390295181	-0.01508430151943431	-0.04332635384414977
0.01295998385926933	-0.02001094036818985	0.0006581774692300295	0.005165605333180465
0.008676647303373733	-0.006172956047084571	-0.01330601457558367	0.004656062802146066
-0.003973012306488685	-0.009705592939327214	-0.01308477826924669	0.02926970403298068
-0.006066711976838734	0.01567929932714335	-0.01276197812474809	0.03129664684212614
0.002208737858059862	0.00868338648646254	-0.009890454527677044	0.01467341391592109
-0.0005387613613335197	-0.004832627437853906	-0.0003710896720361798	0.0001526456178617998
0.003607178736296093	0.002186646618551766	-0.003167940669720755	0.001096120190201715
0.0258248600834255	-0.01061157384673597	-0.015675746547636	-0.001116265675323425
0.03004646909559626	-0.01643344681648828	-0.05832341794014463	-0.006331477880637188
0.03487264658935368	-0.0005912726962409488	-0.08361492531454044	0.02692957077029441
0.04021190058047389	0.01254604244391004	-0.08000417308045756	0.06000827793900392
0.04327709475002339	0.02122280417686494	-0.0416210509427509	0.0456288909657783
0.0404630306647648	0.001542685199478648	0.06492605076336209	0.008433724026609576
0.0194464608345399	-0.008021578634662766	0.1133581906766888	-0.03062365513796533
0.002915025842268956	-0.00767840056885865	0.05823712876128149	-0.1005723239859162
-0.009466855071085269	-0.01102053065682605	0.02705111778178657	-0.125132073104833
-0.02896974987936836	-0.03565374428207602	-0.02881390428591688	-0.02378823475685113
-0.04708680778191203	-0.03205215613235564	-0.01790580076761685	0.02102204872977145
-0.04336614841603424	-0.004312988045497266	-0.03794202111736711	-0.0291711227520581
-0.04255976561219687	0.007039632068212098	-0.01323424944426162	-0.01763997931130872
-0.04962288292575108	0.01157168181884748	-0.01849612563639856	0.004105252958590569
-0.0798236179482967	0.01423657085409968	0.02401065395257069	0.01716894690955208
-0.08449114905930638	0.01797428531639817	0.1137517835275297	0.03754900563635732
-0.04423205123196807	0.01474346284976871	0.09312403167056089	0.04018324853428371
-0.01632822150666217	0.008853775429301568	0.0545322816508114	0.03495581184636794
-0.0007414958165575782	0.008870919582177606	0.04118153114628614	0.03150915625004716
0.001293057816952788	-0.01160395752109714	0.04424939741057413	0.0008889865942008135
0.01195368961637761	-0.0220162208961882	0.01485955037466207	-0.01742465564717793
0.01639564133638152	-0.02036111153128809	-0.009764874567457454	-0.03079909183905831
0.01438373571805634	-0.00927367110269497	-0.05073742488244876	-0.01201469949370915
0.007640244550784051	0.01311942298729579	-0.02242202507251448	0.007838715136076788
0.008559713815631496	0.0779058057300694	0.004711482735498928	0.01807463491630949
-0.01031108512536529	0.01535786645458659	0.01533580008643657	0.03830862565852614
-0.02802770971256921	0.00939645787931849	-0.02039589382978636	0.0375293625933272
-0.02236147420704387	0.02165086547079841	-0.03739841870798886	-0.000164986853459381
-0.03549627433430955	-0.02971846657033366	-0.03702838598711736	-0.0164259055080914
-0.03071875148361518	-0.05527659780844701	-0.0253587455779189	-0.001915364408326563
-0.008789351153166329	-0.1003577433596073	-0.002680929388834744	0.0126138672287029
-0.00219324593968775	-0.09923091877806373	0.0008293940422536911	0.01089813605356585
-0.003474271667837807	-0.08167917176003262	-0.01125636345232699	0.01415988877057855
0.004555245612420255	-0.03390261494175577	-0.0129928647742306	0.00712084708282098
0.007706919494887795	0.04140999891470322	0.0005243152746768051	0.01780224440397827
0.02047393199709732	0.1411887156220816	-0.005625167039172635	0.01797194428696369
0.03363335549724066	0.1519916340844926	-0.00938351089443859	0.01365104851394223
0.03450466658588421	0.08604854722796916	-0.001544102056101994	-0.000314399138193623
0.03564081286389843	0.02567453707296533	-0.002137765031321106	-0.001703039113786115
0.03506800560032579	0.004663737444413659	-0.002234312650114935	-0.007838115355211551
0.03319719431446178	-0.008568377530342014	0.006857660625724497	-0.0008477771244178317
0.02560792301739523	-0.008310701391822967	0.009274488431328103	-0.005357278189543499
0.006968420995259307	-0.000961836587823839	-0.004506978035378968	0.008517140051972464
0.01087526286722951	0.0003546199211684195	-0.0101639198271204	0.02819717251223377
0.008366528362499013	0.007723168303819708	0.009032837539597237	0.03488546791513576
-0.01014725718740588	0.006243379745285044	0.02981929064342782	0.01413028532796562
-0.01058892247737745	0.01447073433490212	0.001135656495887842	0.005153085148143065
-0.005723560231611294	0.009668775088374937	-0.02615973211161698	-0.0015322504811743
-0.005910532217874976	0.007740545258643672	-0.006402080060917594	0.0007861160958739441
0.005689336762435772	0.002090161040961832	0.004259437310216199	-0.003189195233661823
0.00614867056180598	-0.005457403601777844	-0.01652395021972443	-0.00636311231151961
0.00586632462266466	-0.006821508948929412	-0.007137372816057801	-0.007572850493256201
0.007141239454728529	-0.01328157395224873	0.007086324818943961	-0.003180250796241184
0.009450997193661831	-0.01781860348662527	-0.002365574804216143	-0.006597684300231735
0.010149245228245	-0.02184524192486449	0.01415463021925854	-0.0006738500517209567
0.01231589990603524	-0.02000317308411701	0.01615468356690606	-0.00259066730570703
0.01282824346922622	-0.01820251757734521	0.01880772092558962	-0.00503702439235793
0.01352238519010498	-0.01776259044182499	-0.006620999234665984	-0.009339405056084202
0.006823644207441656	-0.02263994064043399	-0.002869406548810737	-0.0070919409218953
0.008361055772863727	-0.01734469162991163	-0.005348300079878847	-0.008954982072968765
0.01232224781594809	-0.008718169888289258	0.007881136012258427	-0.007245012889699375
0.01856912942447483	0.007049550662612253	0.01541817353576405	-0.00371835051544125
0.01490108522085591	0.004917271740075498	-0.0142741482281881	-0.004174533751248676
0.01240958080424448	0.003734971100487122	-0.007445683025652366	-0.005423052622111426
0.004817826016196669	-0.003262692348170502	0.0008138588602187947	-0.01065490569352687
0.005025258210327867	0.004514054037625556	0.01132293443268183	-0.01470099294379328
0.002275432973096545	-0.00196191738580928	0.03177145115799342	-0.00893916149224765
-0.007236920269234601	-0.01030183479206074	0.02316835305892001	-0.001918771360405592
-0.001289324592986336	-0.008062467117270969	0.0181085744413758	-0.004741822838150589
0.004790330817181884	-0.002955807652045015	-0.02536851449906329	-0.007777463538432756
-0.001894806227591839	0.01009463745065948	-0.03094715548321081	-0.003246762365863654
0.001490119408960409	0.01304610020516049	-0.02328048355575189	-0.00758644025178761
-0.001658397444815131	0.0143129417864764	-0.02641811726941	-0.00924482745715058
-0.004467601204660854	0.002544206043564726	-0.04033562092806597	-0.002882172778072372
-0.01235891969489681	-0.01896416654950839	-0.07515331473915492	-0.001746134650972394
-0.01427470079746144	-0.02788865657977179	-0.06566578983783575	-0.005006427842411029
-0.01782709153628202	-0.02614196072217072	0.01075398739652652	0.003254308905248785
-0.0158059811690496	-0.01874141145248659	0.09668449317564345	0.01301982129004495
-0.01894593539807862	-0.009257729811618104	0.122693671091052	0.0189609099474229
-0.01037927993620843	0.01968769624868075	0.04499590717090267	0.008021046017557813
-0.01231902744142444	0.03477878639906019	0.02566255926758901	0.007714554570759416
-0.006068032124814836	0.02564124198258899	0.05005459546521399	-0.005241148710974731
-0.005652409223562914	0.01385038327728328	0.03229532306601543	-0.0303960968273644
-0.008770929246890982	0.001377008876605164	0.02074089716984507	-0.05648532979624179
-0.02224591375320059	-0.02458950369433852	0.001908986404459549	-0.05761793985334691
-0.01733319410443391	-0.05066182161076836	-0.02977282749951585	-0.04416648722683472
-0.009041241204464532	-0.06432292526185163	0.03759521698739725	-0.03301433442386578
-0.007721888620827156	-0.07530955433931744	0.003350852317336894	0.03406626300202285
-0.004498276855607491	-0.04978866424691777	0.005270486708458769	0.09836276975970756
-0.0007214035693755602	0.02203508088263096	0.01936019940122854	0.03511362476567748
-0.004109694184471984	0.074332254941365	-0.02946224663295717	-0.007202622856475463
-0.00626395941484355	0.01910430224767745	-0.03286915897196364	-0.00502842978499586
-0.01402176864583846	0.0273161646793559	-0.06548015838777305	-0.008381545336132865
-0.01181602590847682	0.03637830634194791	-0.06379228329748941	-0.02620136981989346
-0.007925267059665956	0.01154608222516907	-0.05313073797816895	-0.0306142914584284
-0.003619718905981247	-0.01307286780341381	-0.006436445236816799	-0.01706611609631425
-0.007514662340194665	0.001797926212454589	0.004358561919498435	-0.01163995021304286
-0.0112034872540646	-0.005677578807451982	0.01258011495695895	-0.02559003847325746
-0.005253965799619457	0.01693337654706615	0.005412711769399814	-0.007856768693005556
0.009337622570782172	0.05067093286504686	-0.007693878148601898	0.06261087174663248
0.00806906460289054	0.04147994221008768	0.001507471554522208	0.06878858244350976
0.004492968182560214	0.003364905639635345	0.009177052866669639	0.02044348211445849
-0.001821513735501167	-0.01390836925224312	0.0152981781596126	-0.01351641313707888
2.499617253702173e-05	-0.03129318342561276	-0.01243456778429491	-0.0004650660653182006
0.01099606648881898	-0.03304027871159808	-0.05794037610073031	0.02992479781451006
0.0108627298435061	-0.006311426546161435	-0.03604452952918911	0.04736249313978161
0.01375483360079126	0.007914902809622138	-0.0077197555737018	0.04768529322368541
0.01247073264117711	0.006812219730750762	0.01590329327011297	0.0289037239427373
0.01083711754899157	0.001956294503859153	0.02888507686340988	-0.005012580056625768
0.01013103994383203	0.01615678090546175	0.009291251176253786	-0.007044677181095664
0.00416329513307786	0.01310123058489847	-0.001839278374234064	-0.002590235419623878
0.005255513937646879	0.01483893536637504	-0.03318180723499695	-0.007147441387627043
0.007639423298458656	0.006084308365433816	-0.04510632407731711	-0.01243467010702857
0.001622479133884607	0.003741711791645555	-0.04168581826431084	-0.004880201572335516
0.003651069532924613	0.01140550313154424	-0.02230867552457975	0.004420442785271206
0.006006486312435136	0.01946081916891021	-0.01517238799752694	-0.004048848498495388
-0.004163026311187317	0.01692505286668293	0.01729148788265251	-0.002019060712644981
0.0003014997488075278	0.02049217713789116	0.04722858867432057	-0.006602100698344677
0.002691095505104362	0.02248935974742751	0.03516791541325069	-0.01262809678737247
0.0002432855306079897	0.02725821292876432	-0.00891601951609807	-0.02649365701123396
0.003286895705652739	0.01809721161943146	-0.03475563495007945	-0.03370487225388749
9.597585519397896e-05	0.02904684452120872	-0.01698137681999604	-0.02885419785458386
0.01142750507943703	0.02906260384810738	-0.01747538280002471	-0.03353016537389696
0.00909610580959223	0.01195164913211424	-0.01627121918654128	-0.04060048074477369
0.0007523428947281642	-0.02437267180557197	0.02547166352227349	0.00477121093140661
-0.004097238924926055	-0.02021642284257698	0.06482949015665219	0.03563499174326673
-0.0026829748782368	0.000377231434635718	0.03482133871295312	0.01996924423325122
-0.003705970536971929	0.01921424102701225	0.03711032250428403	-0.0106093283715051
0.001429204182779912	0.02662553567639352	0.0675756058184472	-0.006004781537172326
0.001584803239560549	-0.00924033685310274	0.1401795415701926	0.006548122880462068
0.006357894656381574	-0.03065691761526302	0.1062866971374364	0.004075332548699495
0.004854651850813323	-0.03500563323171993	-0.01121658537383897	0.004598036574640784
0.007495389836441305	-0.04611764990267764	-0.0118306014611289	-0.004277955998759206
0.00146557330486102	-0.05225461042149102	-0.03546133412207216	-0.003726107282649898
0.0006061077764746463	-0.05743398816620119	-0.05123855465567849	0.01021072784047212
-0.001315652674308169	-0.057102453748656	-0.07869416749837915	0.005132113472244253
-0.008617541693287548	-0.03730960968359951	-0.04976396104464907	-0.001570810514720367
-0.01001812325562525	0.001056777117958661	0.05956615720298569	-0.01082905163992939
-0.00156588266522335	0.07069653429377061	0.05095558829848729	-0.01038052981719929
-0.003154868963614621	0.06937802262437567	0.004817138479763834	0.00409417065265188
-0.01557020978373792	0.01280715378658372	-0.01544970935112663	0.01172004923820802
-0.002990683891020073	-0.001854798767666883	-0.01345897425991165	0.004537302099011494
0.006327930529035771	0.004957988267347523	-0.03125971162604752	0.005467053426723916
0.01211278967517681	0.03991136838348706	-0.05064307686450846	0.01102240705878252
-0.01630996221386618	0.02175084552702272	-0.04497872985169857	0.02443639923390942
-0.02201405532293065	-0.002891083322970457	-0.03203668153878068	0.02687179902704125
-0.03263554317645891	-0.02378554497601681	-0.002679407237544406	0.0248260536080516
-0.03367794006382911	-0.02704459468713981	0.04328289388215049	0.02519419745784542
-0.01929480638484533	-0.02743399423657255	0.02485530228091369	0.00333000895623128
0.002774356011640808	-0.04251288139942005	-0.03052193928060661	-0.01052750555814653
0.00862645471359921	-0.03637586039073338	-0.03383498465925951	-0.0125169089069792
0.003562515038933285	-0.0358593815914208	-0.01134175441849678	-0.0208100571305932
0.001791422999989489	-0.0358069075131912	0.006195185869837525	-0.02568539168798208
0.001533931489359254	-0.01993667548109503	-0.005764390851483128	-0.02684211102280044
-0.001154568990279526	-0.02629193823379051	-0.001618460962858289	-0.02673475073845405
-0.0026799622373223	-0.02081355933769346	0.01054647373471303	-0.01598744169980099
-0.01017928608580172	0.005404168454090593	-0.0004433087014139916	-0.002260557290407846
-0.007851359524356285	0.02801555360636219	-0.01314534346637163	-9.772099209116584e-05
0.001024166511107265	0.00023459891704776	-0.01513283586156208	0.006789979114366611
0.0006658022965065402	-0.01196959316780987	-0.02153992768261306	0.006521273401109472
0.0003266527362891462	-0.02092869367965498	-0.01976903218211565	0.003450682204462984
0.001141809815490826	-0.005859730913310254	-0.004628041711066303	0.007722300451930718
0.00286822968104545	0.005842835432058274	0.01284725200573525	0.006493103196515441
0.00440444026091298	0.01278924806146204	0.009817868862160505	-0.008148111519454881
0.002405209241319401	0.01979011503217504	0.01384158806194978	-0.01131120609498674
0.003390462281981033	0.006303521041850206	0.01041137024940583	-0.01945298253412196
0.007160151402993076	0.005223363712722595	0.007079693595449851	-0.01616047351282919
0.02171673163883931	0.01424591150697539	-0.002513146013650321	0.0003503461043545208
0.031753835435085	-0.005885398695696958	-0.01913576483846469	-0.003758101363555614
0.02250699965278943	-0.03642434874618728	-0.0254325905079624	0.04176499063763733
0.01087439490254711	-0.0296877109834923	-0.01835930361422599	0.06627108440239347
0.003616804569891048	-0.01286796880376503	-0.008930876085957587	0.002027309432825665
0.001588151355658947	-0.01116599194803067	-0.004571384943222233	0.000389202920170973
0.01298145753604953	0.00237032309450159	-0.02158540856435774	0.0007293240833113651
0.01909367201534842	0.05948723300478424	-0.04269209242436647	-0.02437195951002019
0.01780961697553018	0.09689566892405929	-0.01966837344715941	-0.02978954522782831
0.01540861253350805	0.08759524250495679	0.002500811866069582	-0.02950002065573165
0.009541039012811489	0.0607903774615394	0.08080776439582973	-0.009124153844942331
0.005500811490958256	0.04229456903947812	0.05323546577027913	0.0100231388972011
0.008647057361748655	0.02627499603803823	0.01590079542382474	0.05755781208330204
0.01612113271713755	0.008010830996907081	-0.01862164040632299	0.08864439469789448
0.01161578230067343	-0.01707762470557031	-0.05205896775170355	0.01786866344866651
0.01031691263608615	-0.06519170739022133	-0.03036248810992188	0.0006804263028826171
0.007882457434573656	-0.06687929806492554	0.007291243807652028	0.0005860398523557316
-0.0032515481306879	-0.05664355737411093	0.01372105312321475	-0.004021322214920743
-0.0001935286769358313	-0.03398982153307249	0.0144234874413737	0.008667347359447642
0.0006442032597510426	0.02963859628844812	0.0275038912956401	0.02301985317022586
0.001268541370752545	0.09738917720056603	0.03619377658141377	0.03191637682597297
-0.004959560444064452	0.08291984244305886	0.1215926402269623	0.009524078151540955
-0.01174704449068185	0.07299461449778417	0.1211996954765111	0.01832163565030736
-0.0223196119949355	0.01092624674855691	0.06333248362216541	-0.0008399522102098769
-0.02177830153349931	-0.0184421835661397	-0.03183569391703114	-0.02739522432468327
-0.02287510641130633	-0.006346693835387794	-0.04184711353819862	-0.03394047272279804
-0.01284303158334921	0.008834573662819537	-0.03813974318178415	-0.005548676567247154
-0.008587770660452953	-0.02004420701282477	0.04737785011094986	0.004492792252960199
-0.008911991532692946	-0.04246761437959138	0.0846269222523832	0.006651137165654991
-0.004027218075721086	-0.05796870983742074	0.06807885173720413	0.03009398384714505
0.002360431170201236	-0.05617929253804194	0.02810171173474864	0.02830947369282452
0.01004333376437003	-0.05548536015781769	0.03339293598530992	0.01950851800747866
0.03665569437179506	-0.05098329016538213	0.01581321454479306	-0.02030276310880366
0.05600188324448133	-0.02706325458580937	-0.007795554650413456	-0.05772895029889936
0.05841700959290127	0.0275768980366425	-0.03374839546062935	-0.08827135491350098
0.04533058705050543	0.03458371393941106	-0.06526885512102354	-0.0729685733854919
0.009508644865247324	0.01590765830224287	-0.08057223505195603	-0.04906465219161042
-0.01767121466815085	0.0113057114494993	-0.02077197740459159	-0.02534354175747512
-0.02647726190162114	0.01989187962324268	-0.01880039951870116	0.0001037929354506022
-0.01848371626654452	0.007918029023124497	-0.02878317429099844	-0.003874708771376787
-0.02887109007596433	-0.00612982127837882	-0.03851752206025985	-0.01113246177032313
-0.09179769850651703	0.00593352149984186	-0.006679489069946871	-0.001197884726514621
-0.1184350323023864	0.0360998718913699	-0.01485767305379148	-0.03941163055148425
-0.08743754706153731	-0.01451227518091592	-0.05278020161367544	-0.01067824170106052
-0.02572614764624889	-0.04344046056066273	-0.043838438676016	0.06073822456280799
0.01670279904463545	-0.01816794596475458	-0.03243988491641109	0.03363834127870612
0.02427189237886065	-0.0010326754628637	-0.009440697477314698	0.0420562793123908
0.01235514043200745	0.01666659530775548	-0.02341522295136884	0.06219290322581925
0.01296569103608988	0.02614692730107951	-0.01559114181942269	0.0501672600251768
0.01871331445019747	0.01986714502189574	-0.03292954318447268	0.007276203043144292
0.01300195466934781	-0.003984362633437771	-0.04404169135004079	-0.04218098343294974
-0.01780770593242475	-0.07822234056910783	-0.005842248009741995	-0.07560052215945526
-0.02447927809014799	-0.08644880655381229	-0.001536294175426209	-0.09634210553549148
-0.02528893527384461	-0.08797884526963672	-0.01837679938785602	-0.08703887083260881
-0.02361245969889943	-0.01817749404347284	-0.02553564433340795	-0.0321344319675639
-0.05103384456128864	0.04654737531532428	-0.03497298077839649	-0.001010709476594153
-0.03900568307711734	0.06380445718402535	-0.00783346323111268	0.02359780119615468
-0.01469213216033634	0.07231560057916958	0.02467949865187448	0.02007885230674341
-0.02227405798228045	0.03354220204311252	0.0235054243232394	0.0111372468176564
-0.006314684226420141	-0.006856050325319446	-0.002609879709801871	0.003804213694726341
0.01398238922991067	-0.006478460949833996	-0.01144890788217973	-0.001667466850359824
0.03099084292908463	0.02451059349621377	0.04400769246100045	-0.01840938548722062
0.0345549056355043	0.054450012321377	0.05699372268250938	-0.004568819341884646
0.02479993671963855	0.03070507559307463	0.04931440068441651	-0.004492175801436857
0.02156372903634287	0.01350207786331761	-0.0165208543159149	-0.00461527523226312
0.02556445433037164	-0.008313731113583765	-0.03460724127073204	0.003203223822820343
0.01796028095417816	-0.01860175709866642	-0.0177406545981652	0.01715402937213474
0.01934471219377802	-0.02096023284413395	-0.01173108907923184	0.0371786583533361
0.001660625508870314	-0.02123063192821006	0.02321852673671818	0.03969177701364138
0.00809731209972807	-0.001823886858066789	0.06164624029065224	0.01070044172618683
0.02095277081676377	-0.02497207620356617	0.07374640983260161	0.005746471803127631
0.02314500432330983	-0.01235912802340009	0.02491901346655999	0.02811530776711949
0.0251854312838806	-0.007084997644372246	-0.07217034028712746	0.01767061477641352
0.02222655334332872	-0.01223024758106898	-0.08860974722102055	-0.008780005741481366
0.02222806906726322	-0.05365274900137643	0.00390047523181613	-0.002094119250099758
0.02676635079951988	-0.03787578487165021	0.03577238551104577	0.01800609791203316
