-0.01879121760518164	0.01328418921203955	0.02930584416813332	0.02397548940464372
-0.01641463870921193	-0.003296777954880111	0.02299361989514215	-0.004991732916253498
-0.01166821829017846	-0.002601842353799613	-0.02098895355021137	-0.05877980664920095
-0.008065039129272627	0.001359376688871294	-0.03564086855597757	-0.05481613161102038
-0.005943026524991605	-0.0009045273028784338	-0.007229403153582776	0.003359110072613313
-0.001126063363932745	-0.005223324193262233	0.01382448243310432	0.07618437570462853
-0.005960096440908252	-0.03459548287668181	0.0152742731051739	0.07622773625135815
-0.003577264474377748	-0.03878600828805811	0.02866498686023474	0.07042449358595873
-0.005858867016239209	-0.02702375998818319	0.02749103341542758	0.07418167883025181
-0.008412977449019584	-0.02384403187394446	0.0133562869240276	0.02810229986808898
-0.0009004492658822038	-0.001814070298309731	-0.01971049790439974	-0.04915401665987666
0.002324327477921701	0.02779362426032757	-0.01920620474902549	-0.04262565859800154
-0.001409329268863451	0.03311369085937593	-0.01505081694619873	-0.004089431018175113
0.0008902433310219217	0.04929707789375519	-0.01897376589555839	0.009375551068749361
0.009515787348483511	0.05716666852371203	-0.01330277050834853	0.006433793656944553
0.009396023951271038	0.04070126424913324	-0.01796891197841238	-0.004431289559369378
0.008932417531969239	0.022018213304832	-0.0190900099284981	-0.001565180273742541
-0.005064181976161456	0.004871087817855237	-0.01249700464544221	0.002166410783384605
-0.006098504229674558	-0.008276570268775587	-0.0229237487677297	0.008375288013355088
0.001316523638041111	0.002743644389623644	-0.02159982826988548	0.01861211857609417
0.0008901640806160749	0.009683900740661246	-0.01974108253380952	0.01612859139636335
-0.000662331937334743	0.01999476511032135	-0.02129090130632079	0.005931137033416646
0.001139410243005533	-0.02806509318011808	-0.03469111862063007	-0.005018588203800413
-0.00448538232817092	-0.04965187227913764	-0.05487506550017852	-0.007490082325204621
-0.006984467962352632	-0.05309763409908248	-0.05533574314742616	-0.003997649183288496
-0.007375704767441517	-0.02980421890723016	-0.07042682184327688	-0.01308503266173714
-0.004584563351330157	0.03249726595665197	-0.06987959486061707	-0.0187704162344264
-0.005587947574526677	0.05128863587566458	-0.02017104055197226	-0.01240793736616433
-0.001600810976511617	0.03835880787120435	0.1566180109137356	0.03275658638518439
0.01246842223098583	0.0380682672361694	0.1269258507832763	0.03275617034352606
0.02539404393087318	0.03274121980001036	0.06092050103604376	0.02045003077107631
0.02201989104879007	0.02745598695353189	-0.001879327527146515	0.04372980615384066
0.0191392900961376	0.01866703774173015	-0.01219749009170624	0.01915258002157612
0.01120944646526426	-0.00341731522936539	-0.001756827580089814	-0.02016306101266573
0.002708530936925913	-0.0151908278634872	0.02080480621904825	0.00324353295758174
-0.003023816124464986	-0.02100366169485098	0.03799784782408552	0.06564978449401093
0.002973102432742905	-0.02171249201999451	0.05403591338666566	0.08165591940181285
0.01098470088285338	-0.004921541304220348	0.02207374837279949	-0.002763498907446876
0.004742673169885137	0.001304568134246554	0.0190163854406003	-0.02060691026389778
0.003861390539185122	-0.003987610842759151	0.03738425835431731	-0.02594843884160983
0.01587720974158498	-0.01904059931060798	0.0447208664102639	-0.02809107602258017
0.007456205814770575	-0.02887430920565932	0.01919449126317044	-0.02244474154635246
0.004292067388005553	-0.0319135543338945	-0.007888221462541624	-0.0122109674915908
-0.003839758279565869	-0.03119525010162061	-0.03815029870532939	0.01863484108209652
-0.00630131535808167	-0.02492445015818123	-0.04330409126721046	0.05322488664886289
-0.003508735047525913	-0.001279608953848513	-0.03319006218402085	0.04625223504670145
0.002662640798397646	0.02876912534392571	-0.1160385092044711	0.03062495407612691
0.00333223676313831	0.04559429866499467	-0.1240303130646385	0.005168636817565958
0.001732795645474071	0.01814235647919658	-0.09733254924897418	-0.03758736767599796
-0.007316930111568814	-0.01886863084424215	-0.05535207250127822	-0.07761150711779789
-0.004599298510884431	-0.02178019386899724	0.04309662836675512	-0.04127649752931467
0.004166278396483809	-0.02002110236997401	0.140987641756696	0.06688315439064228
-0.008731797543517151	-0.03319917803803892	0.1014396615058381	0.1063470135294694
-0.01398703058122077	-0.03051400142652409	0.07394674611201908	0.09911333280784072
-0.008131879559071357	-0.02334222689336645	0.0385621152586959	0.1851562894865832
-0.001480093420661429	-0.03120597638540804	-0.0149106540224342	0.0572914866720182
0.00166795687757167	-0.007375927998479693	-0.02961998804709884	-0.1369399548063499
-0.0008277508109858014	0.01297337940107718	-0.03699949367897473	-0.2070167939100262
-0.003080565982741317	0.02127015778009584	-0.02855866464369281	-0.1475791354107202
-0.0007975958910905398	0.03718835127273069	0.014230953190608	-0.1101956399961033
0.00254984997386078	0.01084293448408967	0.01453012630050471	-0.08461600109911138
0.009983728793125451	0.006498801537862942	0.03035332177911961	-0.03348764386512242
0.00732549194037219	-0.01004985613209677	0.02777781216441578	0.01689302318083084
0.006721687742736504	-0.03249264610836126	0.01138143094224265	0.007169384154425287
-0.0009978809826922679	-0.03015568647411114	-0.009861723005143963	-0.007233949987316177
-0.001688867466529461	-0.01111142595961449	-0.01846054033555155	0.09712098397353981
-0.007011164424943117	0.01322743346185342	-0.04043675440928058	0.1004989707313557
-0.01217602483714166	0.02886094008470815	-0.01347956204560414	0.08283429790302148
-0.01984912566828148	0.05743613187377108	0.01047032834269583	0.03988971660119635
-0.02030857019354251	0.05224335769606519	-0.0007937688557565412	-0.06498123518991686
-0.00164716194803675	0.02020579275942467	-0.02277749462615786	-0.08369895105027529
0.008946098187856407	0.02091590350503317	-0.03976892191234995	-0.06052218370040666
0.007959213035128905	0.04346392243551684	-0.04234960980824604	-0.03574045392747154
-0.00138732225805974	0.03242781326909772	-0.02220223479565643	-0.004830988596603084
0.002534206157709142	0.01258301262064928	-0.01278736808552535	-0.01472473336415079
0.004918574239540374	0.003046187638965082	0.01173760405698431	-0.04247317477174559
0.007155672291542117	-0.006607054991073218	0.008538274910783614	-0.0399429180640928
-0.000626122798042252	-0.0196951635993552	-0.0006941780886924415	-0.0438347408601172
0.001617432892302002	-0.01334577905629341	0.003257248941654152	-0.03814349686461237
-0.00475788104534408	-0.02521913247025883	0.02658858215512273	-0.01259258680372139
-0.00432059876024961	-0.04988936453175301	0.02694402972507881	0.03744883920396207
0.005516677259409484	-0.04118298579387895	0.01615304845213624	0.01702991972345796
0.007562024972513891	-0.01493169963725887	0.002498989927223282	7.580447892446376e-05
0.002415623970813143	-0.01905872211006792	0.004596656688525188	0.004842286788893325
-0.005643437125013298	-0.005236146525827193	-0.01001099195380844	0.005335886167977146
-0.004804685241298304	0.006903727555929569	-0.05761268949489256	-0.02119444065119205
-0.004959305884294159	0.04146175093704422	-0.1057600804864981	-0.01658285380152965
-0.002776337395646335	0.07542328816425538	-0.07868008250843642	0.06695764558544594
-0.00519437030053064	0.06538998571907272	-0.04437694109211284	0.09577061086737287
-0.00634092758948264	0.01320142112247791	0.04807083531716366	0.05358592467777963
-0.00773183201963461	-0.009774071204542063	0.1104332354335186	0.0399227682027998
-0.003026786379882156	-0.01574176078809356	0.1800677232248759	6.410070991978882e-05
-0.0004481006825006972	-0.02890538790580669	0.1321893041173064	-0.03985604987987576
0.002520664869772826	-0.02757325289435954	0.06267334843544638	-0.03652919760687091
0.007943686251099596	-0.02004791436746796	0.003754175030425591	-0.007841012941285112
0.001008384733425575	-0.02339592924327127	-0.02253940363079574	0.01688096608278258
-0.003758342918904849	-0.02440211473358883	-0.0109115764945217	0.005946564009558407
-0.002310376929731487	-0.009822823877789226	-0.006795931432302462	-0.0310970949501784
0.004589587209123224	0.008931974581245224	0.01477293668593012	0.002648010623827874
0.003678680347237958	0.01373632383759162	-0.01928081546741186	0.01102632975269349
0.003516295402386134	0.01391782204713631	-0.00744645717414518	0.007550827373827605
-0.003611572908044654	-0.007973291124411827	-0.00207084524979827	0.009895377841093437
0.0003721353941267206	-0.02724923411456547	0.002659904112007284	2.936515235504163e-05
0.000291559579357918	-0.03450193511850624	0.001103125591700314	0.01736427948622996
0.006538933988245189	-0.02207824708921852	-0.01945580311043105	0.0141955324322403
0.002360285510000659	-0.01079234806353137	-0.01129518057267138	0.017298145019205
-0.003703561071395411	-0.01951113385539996	0.006196436704878418	-0.008000652467025596
-0.01746874483163001	-0.02455008004637201	-0.0194820082399139	-0.008592119484492056
-0.01578640291154422	-0.009329145132038561	-0.01587582910178117	-0.01794454754981788
-0.005961833693369245	-0.003044984007878221	-0.01875320242626542	-0.008426221661587322
-0.0009364594121771969	-0.0005845637718957653	-0.03467578381504409	0.009237547228938133
0.001816004324224175	0.001620309529586149	-0.01836744900451793	0.01476970569812273
-0.01703192544828403	-0.01809180232675611	-0.003838294578511323	0.007142090879593907
0.001768239767891506	-0.001334651012388034	-0.01231916749046121	-0.0003202239179400722
-0.01287853594103478	-0.01117825602278088	-0.009509864103420161	-0.006512996651966992
-0.00792564850044257	-0.00352431785404932	-0.0217718027067325	-0.001559021574613657
0.005802412822114712	0.01852961472742931	-0.02903289581762119	0.006861124724341622
0.007915415763914748	0.03458526286801743	-0.0286712849706203	0.02812343350941663
-0.00497219660822866	0.004772276216010003	0.01713256519432659	0.01050235933856917
-0.007767697164777788	-0.04282487503241051	0.02790622320897504	0.03087215714250701
-0.001061603171059142	-0.05792186173641899	0.0003316819240177439	0.0227731749164909
0.005237602762516178	-0.02613276810010984	-0.007546088442528525	-0.01463569736237696
0.02355236403578421	0.04292623506019392	0.01038345011535655	0.004446827338456451
0.01896209321258624	0.0627187090577561	0.003584548258971127	0.0427514768447089
0.0137686303939336	0.07250584011171717	0.009345226716325912	0.05169969267397844
0.006967525389037017	0.06219610832045992	-0.01326459749910834	0.0371361537965378
0.006921454541361099	0.07702415126023375	-0.01967541323226915	-0.00836894759099201
-0.00209932536727681	0.07017765016789061	0.01439198596182634	-0.06545584447944798
-0.01113984864818806	0.03191254002565527	0.0001120652073994017	-0.05118275341882625
-0.01134246500131684	0.02672326519723121	-0.04077583333282405	0.006082468392886612
0.00170668605268013	0.04077596442385489	-0.01577511101917313	0.1408516456111909
0.001217345892013997	0.02569414532110388	0.003854368944967087	0.1085379340110565
0.004743331609676904	-0.002555410083793406	0.02802407503448172	-0.0648184355140991
0.007703779939598944	-0.01038115114148552	-0.0006666049110185071	-0.1026556492089029
-0.001413921236460035	-0.02328213124085999	-0.01375393719007767	-0.09676510938351345
-0.01598268174657167	-0.02889249284707259	-0.01878824202518877	-0.0933622550160824
-0.01133548460935207	-0.03326480596537952	-0.01712983413784923	-0.0457697601672533
0.002804324056485625	-0.03017188300140588	-0.01877528307804751	-0.03182332233019653
0.01774082408641048	-0.009484709125681327	-0.0005474944486636129	-0.03512393249234601
0.01989380348918729	-0.009487414400733259	0.01474309670327375	-0.03498172989342561
0.01610953339308347	-0.009691139648407385	0.04376062842149105	-0.03267364090902468
0.0122406716834286	-0.02283384355103855	0.02289546870739896	-0.009663388384926832
0.003360314181729992	-0.03494021969096334	0.01441816370022021	0.008039523510928907
0.007768762008979941	-0.04351563607919536	0.001980970180243808	0.04655553944655143
-0.001140225838000961	-0.04116135720059007	-0.03093468850242838	0.04740948478770701
0.0008735632254922989	-0.02316719243772233	-0.06077331230702776	0.02450642317598421
-0.008903854989509146	-0.001199200557561769	-0.02790989924224291	0.009598182398599449
-0.002215586858295202	0.008362797941813403	0.006102989387675292	0.01150135924748495
0.008299257804788065	-0.001436447246296034	0.008438573766495016	0.01116402973925379
0.01341441835041158	0.003840073586615891	0.01255750996893677	0.0005187415773875637
0.01356125662137697	0.01421337719962775	0.0187753409609507	-0.0006329747989532919
0.01080190082700914	0.01458404055798589	-0.007432659038966088	-0.01531265042905757
0.01067820937498852	0.01099507696771236	0.0016863324728694	-0.02135660740534969
0.006475137831425583	0.005066383071246664	0.03561866715911204	-0.01536684416111025
-0.01811420399736877	-0.0157883120181934	0.06185341470709535	0.01455864134942649
-0.01033853116891614	-0.01966634810146642	0.03888605068120772	0.04513733655340901
-0.0155584740702405	-0.02968010404452521	-0.006229867222738725	0.004556039816229422
-0.01256880859128636	-0.03293110108724779	-0.02845474393960318	-0.01465078462218943
-0.002800142879332562	-0.01261438537381397	-0.02152103916158338	-0.04065012791173529
-0.003929954357244331	0.01203232473046401	-0.008005020943374932	-0.04273689181861284
-0.01227984705199174	0.01895533767327877	0.06965131581276855	0.07751218208238712
-0.01003966887997462	0.02274599028637229	0.04699778786738859	0.0570072648944842
0.002554018878535159	0.03259831517934399	-0.008905477398088149	-0.003882121427320031
0.005161016081932003	0.01007847538074646	-0.03496127230429857	0.01542293232116942
-0.003639222496892563	-0.006756499316993784	0.001223428849946166	0.08825831657567393
0.004685720932282852	-0.01822251167210546	0.02812777873388801	0.07465511418364314
0.006949169290710525	-0.02161967595465036	0.007302287769421277	0.03227130440860621
0.01033385273368577	-0.0171535375151153	0.02855495668986237	-0.004812486033181058
0.009349458998167189	-0.003735279302744441	0.04457247900426988	-0.03345601133888922
0.01355912783712386	0.01742104117305931	0.02285860874306823	-0.004716339002495279
0.01248031916784701	0.02060535435539658	0.001557382270821624	0.02559373945225302
0.0008637347265576008	0.01380554146638709	-0.02335777756861831	0.01075298049590958
-0.0008759785007972438	0.012137418611413	-0.04029828251633513	-0.0405205070846112
-0.003117760865487192	0.01095241430979639	-0.003755077732068942	-0.06286652916375911
-0.003908914360705736	-0.01438885408015539	0.01479298999213723	-0.08696870040652495
-0.003723000416061168	-0.02646793069629952	0.003811953460544911	-0.0823414043575353
-0.004324702508867698	-0.02893306071122326	0.003032934519703011	-0.05722298991184297
-0.004285952703727025	-0.01806380428514087	0.008915815043525736	-0.001812400162834529
0.005486987507852044	0.003884370207282759	0.002563518206951938	0.005197874215994405
0.009759398676063256	0.0226823536220123	-0.01586166629053728	0.0003603245631076877
0.001471735411809125	0.01649070215158381	-0.02238769116841385	0.05224960096563126
-0.003816432712685017	0.001865928911340818	-0.0175363102741424	0.04015820743728985
-0.0107466794018434	-0.009943382682033378	-0.02572459429878874	0.02776640462929434
-0.0119723734883463	-0.01395470469295865	-0.05896899282990782	0.0957617636655006
-0.0247491911490492	0.005355166237305206	-0.1180228762124433	0.02059978115228353
-0.02442525748984951	-0.004735032207703441	-0.1160420329883319	-0.04722328475782515
-0.01512188214890713	-0.007219143081515594	-0.07653546376048541	-0.04584349953552703
-0.01733130674982987	0.002285528975610734	-0.03547006376727866	-0.01709181760414129
-0.01734313163622496	0.00201396921178968	-0.01757856935349576	-0.004859432343326793
-0.01679301185854049	-0.009394362728127315	0.1840146157462829	0.0001922688258856617
-0.01731128368072416	-0.01733919382371659	0.1356079753815206	0.01563868539019831
-0.01388577335111461	-0.01551626567213158	0.06790070565990342	0.01648463874288649
-0.01289792357873875	0.01719081710554201	0.04859839784276716	0.0126043021709055
-0.01194045355321114	0.01830790539682047	0.007075745322386389	0.01840187004121779
-0.008813484511284551	-8.118452304313855e-05	0.005103930833997601	-0.005494729322796
-0.005194775258563031	0.008736029811293743	-0.03401019363913694	-0.03534667667267873
-0.005470649117322513	0.03033162245445355	-0.04791482248169078	-0.02537942658220592
0.002753378682491134	0.04635067233744142	-0.03919305653404532	0.0231574764277597
0.01350770875930535	0.04232431716076223	-0.04159209180104921	0.05144170554279887
0.006740314426050107	0.02237776817398849	-0.01019923032720021	0.03845044086127503
-0.001456072823612587	0.02270412654058837	0.02500987258464683	0.04413804324095302
-0.00635281067573225	0.02238147074140015	0.04865430002966763	0.07082548622798419
-0.002136321659663661	0.0226428710704975	0.06008635474165537	0.04357087561052039
0.003963541810945694	0.02886175321594298	0.02341669737296013	0.01898228040059181
0.01392438942934769	0.03132164590334956	0.04170135323691571	-0.01245844595812735
0.01638812789270361	0.01638357159503539	0.008642324251592325	-0.07848871337564522
0.02437185912222975	0.02738118996634294	-0.03050506717019988	-0.146691188847814
0.02027623274285618	0.007641229761219647	-0.02409139732071861	-0.1250233195517581
0.01453697990964471	-0.004281516649548639	0.000562297632345498	-0.07437354414963274
0.02280432416166011	-0.006329275051698038	-0.00963272742783791	-0.02761181578379616
0.02420747341400269	-0.01420391080588471	-0.02154139498830668	-0.0204217096502699
0.01381031454428031	-0.05111576994128597	-0.02650007451349358	-0.01575574731448054
0.01162265989916446	-0.04652366713551567	0.02118391652092885	-0.01307370929515565
0.009668684254507962	-0.04625290945215103	0.04169729910166471	-0.02012761794548912
0.002435936397823487	-0.06213198666194904	0.01328955035484984	0.01316381232115258
-0.0004044414905861679	-0.07427080159138005	0.001687547031217437	0.02353749321525764
0.00150998060147618	-0.06244604343830098	-0.001161016290680343	0.01818809575111794
-0.008380668918217586	-0.05728688951146298	-0.01864421956846798	-0.003875283537803918
-0.006130849326426106	-0.03586129988054446	-0.03063463067708965	-0.02600112179083735
0.002422280342811064	-0.0005317163727957614	-0.07380051119343896	-0.0139673088166806
0.01451737875121293	0.03468949652858375	-0.04864245785287946	0.02520069330547909
0.01138665656783982	0.04682418190003491	0.0149299100518853	0.05278362372224002
0.0002372355405114676	0.03400734257936971	0.01216251490118473	0.08839992590864858
0.002983002978068444	0.04013033430831341	-0.00919563920402232	0.05171872164071327
0.004288308334250998	0.0349957976234307	0.02498428963735961	-0.02417597266200303
0.006979465041256822	0.008959207939927839	0.04021102491000313	-0.05114690397553357
6.135646992434968e-05	-0.00428333830613255	-0.002412223648910517	-0.06511967834697333
-0.005605413338016494	-0.02574703302860488	-0.004357435158740383	-0.05565503394563544
-0.01596963958565479	-0.03842981343112602	0.01613324369388843	-0.0446854095112359
-0.004978888732711079	-0.001246886282702105	-0.009557161573947837	0.04768905846463678
0.001062466407157861	0.05086072290097859	-0.01656748611574464	0.08273244084169418
0.002044157661082392	0.04613213927593129	0.01263956948167612	0.05007948746009352
-0.00098495528840602	0.01191164720296009	0.02064516814287986	0.03534481492560499
-0.002514410018663729	-0.01403967599431509	0.0258179195582851	0.02978352286160296
0.006856290639267857	-0.005769534103842663	0.02183511964742264	0.01800600177885706
0.001008383583182008	-0.02057941723573319	-0.02527375387948845	-0.0009470511843553029
0.009085609791468474	-0.02597514309164028	-0.02629262817427584	-0.008550732005768285
0.006082347582257064	-0.03054069188690196	-0.02492393878589453	-0.006968168252492515
-0.007324234633803301	-0.04202935257147548	-0.01918069985505088	-0.004740430779468172
-0.01186787035437841	-0.04572453942144941	-0.001913390111768178	-0.009106032293115273
-0.007861417425175871	-0.01358157114349827	0.008118086717236546	-0.02498054089922363
0.002585687233167145	0.04046438627290023	-0.003622885214809076	-0.007756603402175247
0.004351050990961136	0.09134935552669934	-0.003163285012131608	0.003363719448676738
0.006196622121985296	0.07238883243318699	0.01260338008161511	-0.04319919321389871
0.003159652950446618	0.03702193472722334	0.006241283165071922	-0.03319314779035166
0.001594716841614684	0.02564967960904143	-0.01092659144045963	-0.01332319289910579
0.002453020067296053	0.02913319223964908	-0.004197229434864579	0.02577618249021174
-0.005131454784702302	-0.001451598006408129	-0.02217925569934895	0.08943020646489856
-0.004551764873197909	-0.02001143183172248	-0.01121482732057301	0.1268766739730688
-0.002098558377728485	-0.02132770696082933	-0.01019420706079631	0.1347950848813992
-0.006837361674537279	-0.01751521136106652	-0.01165121648302589	0.09075982520165216
-0.007969742492405106	-0.008341987801965347	0.003948735816942857	0.03205451631981835
-0.0016832617072129	0.01259831580868864	0.01238048095358421	0.02354224974343952
0.006219766106960178	0.01862545539013377	0.009057812726010899	-0.0143288380264112
0.00909473836976544	-0.003777512831469825	1.966548239816456e-05	-0.04275491847407498
0.0002023414078169619	-0.02859191039521208	0.005910416424256043	-0.03443089223736541
-0.007145935170804941	-0.03343650627449673	0.002631941206399095	-0.02716601687902827
-0.007654531496115768	-0.03280671740144024	-0.008406362640208654	-0.04688111412355247
-0.01650471849392127	-0.03180500296637798	-0.03560498100065408	-0.06714739205206414
-0.01273587295283171	-0.02748364990060352	-0.04003804438293411	-0.0555304430228815
-0.006716265385602272	-0.0223253444221745	-0.007042641858182047	0.01700339409350822
0.003778739850089145	0.002025524677871204	0.008251484193313029	0.05274018518521646
0.002140792746784628	0.00288968372783305	0.00653759693338872	0.04056442095503386
0.001263709263915936	-0.01326947783265542	0.02350332091183207	0.03898284836137785
0.004793055452329702	-0.009351326739488726	0.09021187599404878	0.009157937167545233
-0.0005649511990929936	0.01217440901464554	0.02603639292909032	-0.01063757942138573
0.001541019661746216	0.02308718079105102	-0.0004743022235292518	-0.0288611025411582
-0.002756660773684404	0.02742479438403881	0.006013510671780728	-0.01837326630399644
-0.003932773003141904	0.0156038394192976	-0.008184896743946041	-0.06994955890805962
-0.004143102804302605	0.02526346519538144	-0.0004347317355833317	-0.07554962553096715
-0.005787632850558962	0.01346953672396239	0.003555597461254256	-0.03364678690240729
-0.01220479621890195	-0.007884238578643741	0.006497247178643131	-0.00498849173989052
-0.00540393078107292	-0.00968463666077184	0.02739121658837138	0.0009481917446946587
-0.009481091742451318	0.001704732433643346	0.02575082587715533	-0.002769538692842983
-0.02043837288778306	0.01273607506359483	0.02016706444461814	-0.04347366784224723
-0.01977377327885624	0.02548697884791933	-0.005551111415936913	-0.04671010590758599
-0.02289266959624832	0.01114701133762059	-0.01982404635017983	-0.043531129163587
-0.02000368173671011	-0.004318832883719736	-0.01365585371397986	-0.04930391685664348
-0.02639549655670469	-0.02446048447903934	0.01140743282360535	-0.04539794877327657
-0.005172903486946558	-0.02734938135514888	0.004718341456549774	-0.02725389552496647
0.01796450683310217	-0.02739507026631184	0.02705630214991852	-0.007015610327829088
0.02348445070323655	-0.02205607262923753	0.02964254515980752	0.00326356786774834
0.02467267335115635	-0.005210521958923804	0.01077815914366051	0.008420496157751872
0.02159342172348862	0.001647262281308647	0.01536578448774611	0.05722234123629706
0.009088616903889074	0.002318650353836787	-0.02453260867251251	0.03449364037403813
0.01492387543914288	0.01612233629114038	5.576194590068344e-06	0.02176957151918027
0.01478475647484423	0.03114649114640905	-0.01541009297024115	0.03678097065824114
0.01301762019123677	0.02296008170044563	-0.07636315011403524	0.02997737795522944
0.003114598320170015	0.0002452743290969589	-0.0458875105523126	0.02116837760716511
-0.002424569258572873	0.003866345660460075	-0.0116230388195986	0.007819965205365147
-0.007384868460529279	0.001686545735907643	-0.007134839568369835	0.002623363749009721
-0.006277501303241578	-0.002978729975681081	0.006558177532283908	0.0206781612205873
0.0003155104981127319	-0.002033632913974533	0.01866386238889188	0.03251972076227343
0.00611676135730075	0.009169606808110926	-0.003756424099751402	0.01928408759552374
0.001054531248676399	0.002863127028100098	-0.02776091468666183	0.01798934241555636
0.007174949444060576	-0.00312869750269754	-0.03172212829541579	0.01750183311152899
0.009619494657882409	-0.01209125828533178	-0.004043754324580439	0.01206708612012944
0.009216521959265317	-0.0221951191878213	-0.03769175257979364	-0.03127836533536967
0.005610598785871395	-0.01727489979545603	-0.02944313959658011	-0.03712254168808818
-0.001488244346387265	-0.01696396878043522	0.03109383952892111	-0.0413972806850311
-0.001514393137757566	-0.02353671663906949	0.00436839750588489	-0.01724415317354245
-0.002937891270940851	-0.0299735065986522	-0.01303870003346768	0.003316890453766715
-0.007996814425935299	-0.02476250961083317	0.00794027535579854	-0.005546716032643645
-0.008355584002575576	-0.02120179632168193	0.0261092106846227	-0.004866229002486725
-0.00752337743752771	-0.01604267676526779	0.01332955910396945	-0.02118704066585672
0.002402217727505184	0.002631554833824174	-0.01937151277034168	-0.07209103807731122
0.01620707786348489	0.03797050804031178	-0.01055211801414471	-0.06569987972170294
0.004149728533854815	0.03334518503675985	-0.007255934804793025	0.05229925165827252
-0.004926599879934145	0.04641616495710763	0.07742690562429973	0.05262816629438902
-0.009017629042702832	0.05704638408534689	0.1334421238690922	0.01587361183379213
-0.005742220483507655	0.03096665215971297	0.1060865566020357	0.05585467132484097
-0.001773952350814244	0.006571762069514232	0.09053973885486316	0.09880649439583504
0.01077181041738495	-0.01559960435577376	0.03137734727575416	-0.002664912475748797
0.01315766624518485	-0.02440889724306653	-0.0347808193169698	-0.03540052843862786
0.01270477756004672	-0.01065861926826238	-0.03238857247637281	-0.007755928440544462
0.001939306679797851	0.00333114154417034	-0.03233590985629939	0.0348474003201261
0.004086792843405141	0.02165223516631908	-0.02575752209024902	0.02149338880569663
-0.01215338986643951	-0.009136200672913458	-0.02911316133161476	0.02012109437054994
-0.01139420594522338	-0.02502730718765296	-0.003274611750835406	-0.0004769551633926294
-0.006168931009337612	-0.02028362643205188	-0.009378735049515219	-0.02459153812217082
-0.004099553426533119	-0.009728963540267522	-0.02017995348896113	-0.01852977342878383
0.0007420076270473038	0.0007298436987837916	-0.01932013716918633	-0.009591859521330339
-0.004782509292201653	0.006071519511679398	-0.01475440966307533	-0.007719533134249515
0.006487732209433245	0.02542534643949168	-0.001600325633615484	-0.02963396641602168
0.0106803756977838	0.04792541688475498	-0.03121448072826065	-0.03271310805985202
0.006867525227759769	0.04620105827418094	-0.05956224821488763	-0.03516897835412802
0.003542835497266747	0.0344250261278233	-0.0801242805961736	-0.02833558502205898
0.004130250950133478	0.03412938368895998	-0.1014259999416673	-0.01973270692783988
0.006137113482029975	0.02701539407404255	-0.03705685577969611	0.02278805706564382
0.007118498911003907	0.02117504865026775	0.05376844691633739	0.05641228555942911
0.01043413272873302	0.03314520354981533	0.04913006036419493	0.07011128241887082
0.006470619883418743	0.02606497923935282	0.03679927039045323	0.130995436294761
0.002873442950440466	-0.01094385685221166	0.01643258467986477	0.2003985472856101
-0.008790319950974059	-0.03289430795407156	0.01616712290458545	0.1339601100231166
-0.01031014079876885	-0.05641452861284599	0.003750951405979322	0.01605392966286473
-0.01052755288505107	-0.06061009500635021	-0.01960071974153158	-0.09846846403393464
-0.008577448089253389	-0.05370543356913696	-7.402839815383259e-05	-0.1882614917220431
-0.008311153684465947	-0.0334931706418873	0.003474523271984014	-0.2112284196359481
-0.007978183637414411	-0.01226336626622811	0.004497805250018192	-0.1441276658812825
-0.01232897824702659	0.006079120271945915	-0.0002274389302553215	-0.105884832684086
0.004390649922104107	0.03751465437271163	-0.008161523651371188	-0.07217487354710198
0.01546204320676567	0.04751582566443491	-0.02800540380821823	-0.03395818359359164
0.01166270553613587	0.02546629647486629	-0.0147642295292634	0.02378676319760698
0.0114878823528923	0.01253684956761126	-0.0003092697823793559	0.02423712088584624
0.01353367568643505	0.01450300039729094	0.0001213262191896702	0.02880418312202778
0.01246784027172677	0.006977619603525418	-0.00648868245732929	-0.006455193361981924
-0.0008993682454948069	-0.01798340075200779	-0.00381199658757439	0.005000716636499944
0.008542663483479176	-0.02037525689682424	-0.006354861856439932	0.01893953510867025
0.01147463013820663	-0.01912139757058392	-0.02541744492415479	0.01738921051293561
-0.005372638882972727	-0.04432851294297061	-0.02563464236675008	0.01247407101278025
-0.008960467818655614	-0.05131503488734186	-0.01975329535082796	0.02616043981819879
-0.01539926070484641	-0.06538388038787739	-0.001559526394631311	0.0364281699268471
-0.01590045845161608	-0.06025425454064313	0.0169880827428828	0.05113876844232179
-0.01056790242304686	-0.04451481976350989	0.01742979575546753	0.03404335009188923
-0.01028627003135784	-0.0154777406887322	0.00840060339772622	0.01651371106082183
-0.009288921887230602	0.0136266303735992	0.01489604505834085	0.02768220674802184
-0.01536051457994613	0.05433366332071739	0.01475930742729833	0.02117672531937057
-0.007018175788554426	0.05270617844727436	0.01659842346579577	0.002031416510124559
-0.007767379738998456	0.04432686433240053	0.009367866419941159	0.01285886352249538
-0.001561771705794031	0.02525803393107865	-0.006482469122500281	0.01803190159942318
-0.003805085064169304	0.003597485333073692	-0.002777518322399181	0.01446373476024081
-0.00507605605400678	-0.01237929178538103	0.00697349561595602	-0.0128756982076845
0.003607870323966201	-0.02458770201217074	-0.0101741472785703	-0.01108408255885844
0.00947964193605003	-0.02968826758243119	-0.003475365642800043	-0.04353790221526869
-0.01029493330991399	-0.0074661132586445	0.01339502869694401	-0.04532086021915382
-0.005748157632895066	0.01814853505437732	0.03490834847747706	-0.03686311074643292
0.006325004353454389	0.01678289124596295	0.03947201045249388	-0.005460102182862897
0.005983261087095061	0.006206570718604253	0.03175571430941213	0.02261683442029159
0.008537670098042037	-0.004206091381877644	0.0423637065971588	0.0708545305359409
0.008362678188738247	0.003239841555245914	0.03088701239053666	0.09306401303823178
0.002310384172003674	0.002111364442602344	0.01322328313114193	0.1085643520569553
-0.004377428752890224	-0.006524121680384825	-0.01420361270651153	0.04233663196247051
0.0002089382158472742	-0.00615097140743459	-0.04249075290910837	0.003784629787380924
0.0004098729870729259	-0.02385548373929462	-0.01694595072474836	-0.007926944833470119
-0.005924868242714565	-0.02623210213588228	0.01657175654124628	0.02035528859632427
0.001265665523190597	-0.0211858688451987	-0.01651105249564289	0.02410542375350334
0.0007321923132489842	-0.01922202989701704	-0.00596511217121513	-0.006581646795091267
-0.01036530407194284	-0.02401542412856465	-0.01523007441094603	-0.02400608108218716
-0.001728260809090262	-0.02527013456801115	-0.05035109150988681	-0.05423693952159915
0.00186746398312886	-0.0171955633245283	-0.05816661210420235	-0.0902756498508083
-0.00266878901510643	-0.01815140741916883	-0.02596202386185057	-0.07691698799923492
-0.003366548186869727	-0.01538404873092358	0.04937235359251809	-0.01416951985736917
-0.001898912005665867	-0.0007359219409784246	0.05077902772767431	0.01070029542145113
0.002574447362043153	0.02492502507570243	0.03830019879669724	-0.02374475219871795
0.006281459662781619	0.03521480899573064	0.06321844675063069	-0.02982149516018683
0.008548933735243232	0.0295244446590672	0.0541310279264955	-0.02310250375564613
0.00673267567270286	0.0062380485881254	0.05848856931242466	0.07951756321142006
0.01088790521221861	-0.004175479440882007	0.03779651922020175	0.06897322074891662
0.0049733779635024	0.001625416705753296	0.01721284774930535	-0.002045934377946855
-0.006687244481957454	0.0103039005734114	0.02033609445949193	-0.004740800042438017
-0.0063004537988837	0.01029878342010742	0.0238502598896352	0.02662717439933781
-0.003518990356149122	0.01925607409370445	-0.005790110080197381	0.02948114893335927
-0.003040704485765506	0.02395150701578012	-0.05299250669472805	0.007209039665780462
-0.003035388127729233	0.02664454396039394	-0.06909147016040973	-0.009517324302790557
-0.001730767273554066	0.01025598309479605	-0.05365306237239391	-0.01834917433132011
0.003999697082770234	0.01218518034915845	-0.05294849570892165	-0.0287116540716403
0.008515469870451518	0.009893867024737563	-0.04725798548331423	-0.03236627695073631
0.01142771340270401	0.03102403660956555	-0.005728913907147488	-0.02665536372771616
0.01473658712240997	0.0294261589811715	0.001008531735802312	-0.005283002190914474
0.01430788640602731	0.01711076205118399	-0.011242578550031	0.01550672732688779
0.01199527975379261	0.007344095845946177	-0.01857558955432663	-0.005491801652699481
0.001265220969154404	0.008973882157004872	-0.02211745672025281	-0.008528488215307498
-0.002987888614813318	-0.009234317015977659	-0.02607599359638909	-0.0052145258204791
-0.005209056179649987	-0.01357884451309471	0.004515942047992219	0.04458753311952138
-0.005879314100272533	-0.01254011910399275	0.03852638599341903	0.04885289703778494
-0.002558625581029531	-0.01499452782153974	0.02335196658222097	0.03950246787322798
-0.001278266257742958	-0.02033004110937465	0.01494277768646952	0.02327673914402771
0.004169559140740178	-0.01575906616804527	0.01212464146738543	-0.0478887593957333
0.00143528977751899	-0.01826155218911009	-0.01588795600468226	-0.1061403221775976
-0.009444580752067675	-0.03932150316745884	-0.04783922979953664	-0.1013160242067636
-0.01873969602998814	-0.04030144072864109	-0.02785056105119225	-0.04766033172112084
-0.01382269079604836	-0.005954451346802953	-0.01669707107856012	5.685025795405478e-05
-0.01325697081724411	0.03508362582759554	0.01700088421407949	0.04329144960119118
-0.005124448529549072	0.07161857679001307	0.05077488911135886	0.05971907818697567
-0.001756070374857876	0.07180347401286717	0.06416301276972722	0.04152232655673479
0.0001881159273493341	0.05929902385053865	0.0006820545621467706	0.009247414380322162
0.00139107936312667	0.07811426683822929	-0.03013540398927433	-0.05498709945287947
-0.001451985733642053	0.0787123165240535	-0.002346667467153509	-0.1056585750397484
0.003887984665760997	0.03593650621118338	0.01517820328416455	-0.09986652214515176
0.001538867329324107	0.007465583640637511	-0.01473283766511612	-0.05230708218649562
-0.005486950097093999	-0.00585880960303917	-0.021482901411525	-0.02651122129197119
-0.006589370278376728	-0.02118641916358352	-0.0129430534656447	-0.02598863841387998
-0.005552166311769581	-0.03721997963391113	-0.03694001438885768	-0.02395364037962665
-0.009578539099369959	-0.05169376031250551	-0.01779211731015815	-0.004498761548971978
-0.001811941477651113	-0.05610246192537927	0.01102475718555698	0.007375467687793838
0.0006778802009017292	-0.06084496127190796	0.011079580972184	0.02519140117227707
0.0006102407660992546	-0.05832132519859155	0.04954002183646705	0.0375265957220542
0.004377879207226013	-0.04383623064168676	0.03835366689484881	0.03237251973440358
0.01514633121371519	-0.01707485820183059	0.005135884952418892	0.01876075053841998
0.01305532512848914	-0.00174893807497011	-0.008112887312142211	0.01242356772632302
0.01314074628516874	0.02879535353385321	-0.001748807378317689	-0.005595064887183815
0.0152306573388661	0.04054462516651429	0.003400454310588235	1.732265017910366e-05
0.008701040552492711	0.0274073942406991	-0.0167183575195812	0.0005578520686276526
-0.008270805156345845	0.005082093550473595	0.01977693942988059	-0.01026938412147668
-0.003286220767754088	0.007087205109856876	-0.02105979238380271	0.0239051459345998
0.0003489050632501462	0.02367813438161643	-0.03721507015855863	0.02066300469652904
-0.001939449292782245	0.01620867019450686	-0.0375425493613743	0.0002626640863985731
0.0009262060228012242	-0.003444274014084525	-0.04711451328451489	0.005977229122635768
0.001477267648878166	-0.003187273474225215	-0.01832372727817776	0.01175137922145986
-0.00209702799361609	-0.006828646697846184	0.01626976347132499	0.0149253766573389
0.0009452457024941173	-0.02114487684849507	0.05397675752705724	0.04505892803404141
0.001658951111023324	-0.02885302941362317	0.02563955128826	0.08465882041438652
-0.005174936628018502	-0.0587477086032295	-0.01214482650435406	0.002106124605732929
-0.01448296153413466	-0.07769203313009621	-0.04280372569790548	-0.03262878661207282
-0.01365580107588148	-0.05923555306431906	-0.08012412719510088	0.02709360025049804
0.002977222441918261	-0.03597841687798813	-0.0597325171875259	0.06559531774182535
0.004934174753602766	-0.01767455407330325	-0.009736533604493116	0.1298745732153165
0.01096184116111862	0.01318496657542594	-0.01588408616999612	0.1249440763878735
0.01955281119284276	0.02006934216066797	0.05507962970131274	0.09064838920663948
0.01902491308722509	0.04990547766125347	0.07310810417607666	0.05549592106416836
0.02084202733836873	0.04787325276406093	0.04167738263990991	-0.00487644738547321
0.01824660586774388	0.01953715570876739	0.0255340780842471	-0.05744309330046578
0.01415048879344646	0.02182767254964586	0.0200110745436099	-0.0701671131304151
0.00641089664823761	0.01127944772069737	0.01744070074233129	-0.057457294956584
0.00328202853466769	0.007201534513257776	-0.006514947500197961	-0.01635053771398047
-0.00280338848591395	0.001538240190464456	-0.0194859893290264	0.04827898345393844
-0.002973250726359153	0.0009618264528303619	-0.02780192453179041	0.08942500047362915
-0.008978943441992977	0.002220667369867601	-0.02752675660794281	0.02612256597010383
-0.01304120264220201	-0.006693214638267749	0.00920215698604707	-0.05615158244845709
-0.01156516283261193	-0.01393657545665181	0.06379664574949331	-0.1028513525678133
-0.008753983441707381	-0.005594935611228107	0.04360094504998829	-0.116977115561787
-0.001171974289823378	-0.0005761891026794952	0.01955971553534689	-0.09641598744930965
-0.01251573174406114	-0.003610314578515641	0.001780537234306277	0.003051692839307039
-0.01479944410706934	-0.008105432354862215	0.006387881235738482	0.1144565683534428
-0.007247293230041682	-0.006292045768556172	0.01208471616182867	0.03922504772189639
-0.002311716561098721	-0.01758367338734062	0.00693463169391337	-0.0009835322809688442
0.002979636907603005	-0.02250806953685354	0.005515577335730167	0.01557117783376921
0.009775484401034996	-0.02235449202595395	0.006541131730600364	0.04111739063135671
0.01308439909746944	-0.00861795480125061	-0.003779680288199105	0.01759158982501547
0.004187557664043818	0.007340708056037183	0.011494166885913	0.002592261891883279
-0.003951296671762437	0.007017591413857618	0.002684133620815944	-0.001500793443670695
-0.0139493628572213	0.005459437056626612	0.0129509091085255	-0.02576207186214884
-0.01228876335309246	0.01077965716086932	0.01275594300902044	-0.0353156661883685
-0.01606483386535866	0.01025845082249524	0.0006665394694177723	-0.01337681461305433
-0.01919510942229943	0.00673179580994859	-0.02088402481533886	0.03394275114642378
-0.0117459322216334	-0.006211273520585777	-0.03890685385365466	0.0486144825076037
-0.0005904758308760024	-0.008297078185827221	-0.01736004107342369	-0.01545098475984323
0.004473216091382713	-0.008777822962419397	0.00512258173373284	-0.09395265484527407
0.01198875109437775	-0.01209063665730956	0.01300845454844255	-0.0915500398132648
0.009670315951546838	-0.008523295250923067	-0.0002353425112194995	-0.1026335941896791
0.00161577147897983	0.00197161141524923	-0.01181276863084182	-0.1075324744123061
-0.002005690980685175	0.009084560633293465	-0.006319334975659311	-0.09612526371669719
-0.0006239012114265529	0.002024633761902585	-0.01560216908858708	-0.0389972067842132
0.0001975642668947629	-0.007646777066414406	-0.005557323997151514	-0.002454438266959986
-0.001788332233993527	-0.02902451573998403	-0.0006547821873003676	-0.01738907494213366
-0.001684505303217743	-0.03848958914328703	0.0197496176117772	-0.01232697277227235
-0.002596135193880231	-0.02645340208166994	0.006751921390654434	0.005134483093414529
-0.002513832645480446	0.001661878579647061	-0.0285346389232721	0.01524666359376017
-8.372599654697401e-05	0.02820405670724369	-0.01636484136969846	0.020927697359275
0.005096340689810208	0.04878058343574677	0.008208329474118059	0.007192995909466018
0.01237998126741179	0.05828707126349588	-0.003078593461769733	0.007728704629662996
0.01064488134970868	0.05598285749880894	-0.002455472889108972	0.004659284062444629
0.00324686532164378	0.05948020552181577	-0.009945394225733841	-0.005780727482581649
0.001111831998231755	0.07532486312818329	-0.004558975174962695	-0.007727356506301124
-0.002125355221800137	0.04950952377792392	-0.0002671395719118418	0.01223733175195808
-0.0001384681511313343	-0.002840270182312823	0.007303426565247445	-0.01412241680235453
0.00205592084249242	-0.02452582153145132	-0.009801329693472759	0.009320997331034265
-0.002620983993625292	-0.02842951076529015	-0.01188146458927914	0.06746464742434825
-0.0110109224626284	-0.03623345122735573	-0.001174992716591855	0.0002440994684260718
-0.01452375410270869	-0.03017830599261865	0.01400670210618538	0.008065271421691438
-0.01586940662610435	-0.01535226931796309	0.0119466931801376	0.02627097336919826
-0.01868499155085863	-0.01607842168550834	-0.0006584447133420711	0.03277827802377118
-0.01678220072181042	-0.01587320040023598	-0.002639008317305634	0.0366765695459015
-0.003085158427713578	-0.008837726153172215	0.000641741130483931	0.03420608353513904
-0.003426060144616094	-0.01116960971133645	-0.007376897466257115	0.03283399770289594
-0.003091181670723678	-0.009650117999987967	-0.01395663031857184	0.02244602386367283
-0.004848337183664056	-0.01861197677980634	-0.01112695092894126	0.0172717752118639
0.0007560341931228198	-0.02213996227193779	0.001508075388292377	0.01813785970546399
0.01110206861594594	0.01494294487438477	0.01522956510558917	0.01404937098869055
0.0123814529274203	0.02836974016349192	-0.0001509693101161688	0.002147118356873438
0.006995483290447905	0.02245365500672671	-0.02843438552065001	0.0009649084223975646
-0.002604322934303907	0.01040385459753469	-0.01782057673833441	0.02082146685465103
-0.0006283418275932206	0.01662440724809216	-0.01170899642529707	0.02550644524195997
0.005784641160214454	0.05410104798096938	-0.005753633710652514	0.01289030365388909
0.004085295118473864	0.03826433979104397	0.007093170708531076	-0.001370922514120934
-0.002088202824606992	-0.0005847935021974863	0.01042406209159485	-0.009881520930654905
-0.003366663452716189	-0.01298743896497239	0.04882342277732259	-0.02048778272681762
-0.007973756846578918	-0.01413054952965896	0.06494123896367986	-0.02184653113971582
0.0007688442021528647	-0.01189431781019397	0.02707858539569515	-0.01284106329659181
0.006786212427309611	-0.01435289841771145	0.02099766582889248	0.01101153104119599
0.01078048237453353	-0.001732806077274015	-0.003833001544374139	0.02749263261453543
0.01469411178734282	0.0157666356828112	-0.008760822600379985	0.01992445380790419
0.01267615312602744	0.02602179708627838	-0.009096042068626541	0.003123137433019289
0.002284221483348636	0.03211585864641121	-0.01022944191265901	0.005137033952340585
0.01053765164078691	0.0280876592398316	-0.01841881166556414	0.007739457577269562
0.01103315436706626	0.01189959737987195	0.01339444145886578	-0.002452844682287761
0.008648924015086981	6.475417853565285e-05	0.005958114827483942	-0.0003369817574064851
0.006328329351996259	-0.008586944183577161	-0.0001845035148530411	0.01918670769668987
0.00480298893331433	-0.01416428221188685	0.009138021970406397	0.02398364028993783
0.002376778489579375	-0.0197474494826385	0.01002753135428841	0.01259268329617003
0.003413653275500335	-0.02188998492785948	-0.00430247280393488	-0.008587791709507122
0.003498405187721633	-0.02833837512967427	-0.01354006685634038	-0.02047963520528766
0.001705360183716157	-0.02927750248059486	-0.0241305885510472	0.01239120291341893
0.004261065058482769	-0.033205731653087	-0.03022126653247561	0.0221178356428823
0.006278074687370425	-0.02599703793834765	-0.03605213169148712	-0.0049009959441781
0.006427682717854507	-0.03252372377465897	-0.02637401765924734	-0.02907575702494471
0.0007540036558858616	-0.02665230695505206	-0.008484353834853237	0.01226399213813787
-0.003794662559048329	-0.01941784045371642	-8.974671097845061e-05	-0.005033105639943501
-0.002078225182434229	-0.01143020296807304	0.003465114247115078	-0.04412491674483997
-0.001682405657637855	-0.01391120742697999	0.02747657852280457	-0.04097582770630718
0.001219787423417352	-0.006797307286618052	0.01696073087196597	-0.03502236467238547
0.0007674276621841682	-0.002107099367415789	-0.01856483579673986	-0.0383405444494271
0.000410605761711319	-0.00656584537790818	-0.001803430383172151	-0.02020651915732874
0.005522561306734244	0.01224300933872384	0.005564903569768573	0.05713715211216512
0.002963182546012297	0.01666400582909233	0.008609325591678272	0.06439806896185786
-0.00208639862616936	-0.003268116179508396	0.01197988816951385	-0.00237806877330773
-0.00122135068128227	-0.01334944448997952	0.001752184270966441	-0.02221041685957338
-0.005641787508891015	-0.0237030031542876	-0.01154871679829985	-0.008148230852295461
-0.00417390620864282	-0.02575748926400006	-0.0100136765593116	0.005806542407508307
0.0005631283237529787	-0.01306331428990425	-0.01307732121182082	0.008572969525999301
0.007440357974742725	0.01689300801142555	-0.01265523529572535	0.006761894537876408
0.003706647028248324	0.02931983816014504	-0.01305705118777242	-0.007415476695548116
-0.002581850684561324	0.02054856927351367	-0.01715218126873172	-0.04439594558204162
-0.01842717111303379	0.0203476526016756	-0.01342938377767734	-0.03559207142100936
-0.02047765418289636	0.009375912821365464	0.01240622207240656	-0.02455347266359593
-0.01369148199012631	0.009264907111415883	0.05205279770788598	-0.03170605854257287
-0.00535116141435314	0.002976725722349895	-0.005614858577940692	-0.01444485161268513
-0.006959975742893625	-0.001773656275142334	-0.002955856567572327	-0.005678431281447609
-0.0009820757824904891	0.007667539052506568	0.02579286223794757	-0.01490173507787556
-0.002787640494607025	0.0008734768747993979	0.04013103510878187	0.02298179028752404
-0.007367360083347852	-0.008089379898138746	0.01706113419800302	0.05317538220892144
0.0003986075108479356	0.001550774703414022	-0.009496063572827947	-0.01353978242622887
0.001029194961368297	0.009814355506423728	-0.02624543425173071	0.01600034718014339
-0.001819341760215549	0.009699817643636748	-0.02738148004232888	0.01500979887133113
0.001744689299724613	-0.0004009509156916285	-0.02638904852009458	0.01867176289935801
0.008483862313469951	0.01366054985378735	-0.02412616299442266	0.01057712413144469
0.003094611943010748	0.01382058374191055	-0.005733334902945479	0.00127908975418972
-0.0006525122238414347	0.0133898909291031	0.01684307726484176	-0.001155395658945977
-0.004383606646331765	0.01270819348929406	0.02443650913668648	0.0126105562536274
-0.004330962169998442	0.01153180664602241	0.008658110536682978	0.01715879993241454
-0.006597326029887045	0.004843971537486989	0.01233916758605945	0.01512035934501949
-0.00111489499817132	0.002008220283946789	0.003613276711413648	-0.0002618596633750085
0.001777852190408563	0.00133440365031176	-0.002933277626042522	-0.016541411602528
-0.001898212204217746	0.0002141547633023364	0.00561007418359388	-0.003128991931846094
6.525962238611361e-05	-0.003943083114995622	0.003354547918958159	0.02501350097158068
-0.004069977205907189	-0.01108836520659825	0.002731157245798671	0.02619594740226815
-0.0003169664693892412	-0.03354351925753395	-0.01322935935719462	0.01715425958669974
-0.005236529068417557	-0.04124812243820532	-0.02082886979065417	-0.03569103478397657
0.001585168008671386	-0.006824084301957299	-0.01692797835420927	-0.09339847199353166
0.006429842730494914	0.003677120778895971	0.003734892370601373	-0.08749803509360055
0.005901124637685867	0.005225852681293148	0.03950511222269038	-0.03888007781417625
0.00660439960003215	0.02147816566791521	-4.047757705135283e-05	-0.04064292509487737
0.01258459701044308	0.03670474233937449	-0.01929725762620972	-0.05633046819363192
0.005613385814955074	0.01893182283847695	-0.01768603074685969	-0.04951688756681698
-0.002696571145974316	-0.0009288493789646811	0.005091410308199221	-0.03901599334914506
0.0009842058747512367	0.00585337508788848	0.03214399802297974	-0.02565072163646914
0.005164060568714144	0.02545549969941737	0.009969450062151915	-0.01570552197794615
-0.004646342997728	0.03562900936865925	-0.03038607455000802	0.04073444508550292
-0.004947163290826419	0.03050014008816469	0.01709926587599044	0.004471565316258982
-0.003420340890929024	0.007696019111229651	0.03669197203968094	0.05851558328413348
-0.002521710925437355	0.003329716737721462	0.02066898316491373	0.09535886774512187
0.001891297821724405	0.005469197462317153	0.01043205096135167	0.04523527679970095
0.002759673040668746	-0.004047373775120365	0.02047023811014292	0.0375754634293152
0.002215551986218423	-0.003918177113138058	0.01356777950302646	0.02663507876042963
-0.00134361109295409	-0.0143203819544317	-0.001630030930692126	0.0130878989141714
-0.002447368510028693	-0.02414484986918879	-0.003704074052204324	-0.001476624271108438
-0.009428117070533721	-0.0310126592252511	0.0004594489469749199	-0.007441284157650852
-0.01116455604094071	-0.03390317663270496	-0.01916861148955821	-0.02915326795968907
-0.009054640887189004	-0.04801067258195803	-0.02667566981308741	-0.02593824009268091
-0.008125794645395036	-0.05169562810447568	-0.03168162077541864	-0.01281315461704433
-0.01330666008874438	-0.04355143905560967	-0.04066438458198352	0.003316986604643341
0.0002335272353768854	-0.009608222189679707	-0.03286814585921838	0.04388863562752765
0.005512310115095535	0.0003630197690804959	0.00318160572237882	0.1574036953996758
0.01100623445255505	0.01671658890981975	0.04555921192507544	0.1276716286374471
0.01930737371661213	0.03284849107408563	0.08554085052760073	0.0385300071614476
0.01707106909268643	0.05098477907538779	0.04013507150129281	-0.01828486583031497
0.000441160709771067	0.01269040452254582	0.01258103864180997	-0.04532174211887159
-0.01161073885821674	-0.001927741625425186	0.01137341750790958	-0.05410815724286157
-0.01371916810468793	0.002820088484778642	-0.01639644791117067	-0.01256432644667954
-0.01310481522672931	-0.0005655716686195846	0.006827161636038645	0.04909167157795251
-0.002066162223668065	0.0003873758039015188	0.01020719965370316	0.007178102674363114
-0.001620525130634142	-0.01442925302065689	0.009608996301933986	-0.01527600867385825
-0.002185227848886722	-0.02659095245611252	-0.006103697374548574	-0.02117650233219592
0.004125482957619142	-0.01420612050444321	-0.02232957774943773	-0.005029563126281947
0.005409100688209179	-0.02243745369692517	-0.03976301344067312	-0.000969303919184452
-0.0009952726732368078	-0.005941573831400084	-0.05233394550049014	0.006780493515175096
0.003141037095874797	0.01808864920254095	-0.03258494083157316	0.02732675222285544
0.01225543897068996	0.0616134848899217	-0.009626588962010942	0.01205094067393896
0.01706395580819562	0.05040878057407256	-0.003674654330469034	-0.0005935183614630824
0.00960418405969745	0.02614095460157028	-0.004423050900326899	-0.008210228387012686
0.01166058032359783	0.01164681583417683	-0.01979266554846084	-0.01306810995573789
0.009108853975367136	-0.006415257821380518	-0.03504602094780571	-0.009238739717847342
0.01007904730242784	-0.01450266987289704	-0.02772877062009137	0.006630924231167981
0.004057871501945133	-0.01397320419942228	-0.007246705229270994	0.02188029978707864
0.008006424385685447	-0.002233077188331688	-0.005065195029774803	0.02168306596389538
0.01264280225225672	-0.008866655327511871	0.0007130029493512766	0.01330925565248753
0.004651260094012838	-0.01871364298037791	0.009620316702060277	0.003304609364530687
0.002324033291273374	-0.01158799552534303	0.01326151518130099	-0.0262782468875976
0.0001685700222783217	-0.0116744835891054	0.008885248771306069	-0.05532478854988954
-0.00678489763665744	-0.03590106145567194	0.005156474093830501	-0.05819473183264218
-0.009868170176050271	-0.02850317182090788	0.008320277168742465	-0.02439715354968992
-0.003133432043781461	0.01068903089018755	0.01189761795639461	0.01333004547413555
-0.004221401246182979	0.01689873523532626	0.009024125174693504	0.01679872209698896
-0.004213162257286025	0.005787485338181775	0.002098965203278558	-0.003005107360877814
-0.01698404094140418	-0.003457318121061629	-0.005336260994229942	-0.06370858205947134
-0.01591571999620935	0.005587561368891732	0.01687266364093163	-0.0814151806619391
-0.01070165379746188	0.009695604455709389	0.01353720838746211	-0.05236640407409025
-0.01001664737224041	0.01985205446440713	-3.884161094697559e-06	-0.001407282956826011
-0.006504967658663306	0.01988791603973631	0.001427976380498767	0.01913093769813413
0.004173704841666572	0.008365633959676199	-0.01150191124412467	0.005728959506666336
0.001953709224844783	0.008395361890218866	-0.0107403596291554	-0.01142503153460065
0.008062561816179266	0.008747614228698001	0.007161048503335886	-0.03613165399400938
0.00995301177664985	-0.007663578797869947	0.02430119994138046	-0.0284443165083585
0.009863627755311678	-0.01171102207825739	0.02680041130225756	-0.0401926541326685
-3.042706420831774e-05	-0.01726115141402815	0.009835200014779744	-0.04576588367805095
0.0009746288405198327	-0.01557160332730562	-0.001659431096880282	-0.02838571399575943
-0.0002636633249906574	-0.009214580256587094	-0.002494933908378546	-0.02048304321155477
-0.001631824384826088	-0.004479639705123903	-0.0068943396407206	-0.01880368099031342
-0.003419520272975714	-0.01540557995680045	-0.009123044374881012	-0.01742740621069384
-0.005986066999689245	-0.02429225944931069	0.003457893087805505	0.03280387270736558
-0.001920486985260523	-0.008403320276864178	0.007543555285893433	0.0414192061196812
-0.002977958659110505	0.006425493561894947	-0.00360917114468689	0.02740800707544104
-0.005823245322250296	0.03209401139689048	-0.00865578390576769	0.0590519845402216
-0.00237620576066983	0.03152673743707887	-0.006978702488512409	0.05544577995871332
4.126276242680752e-05	0.01177760550983671	-0.008494959493585705	0.0434736544715444
-0.0002623787144771241	0.01283068272160269	-0.00245038873420626	0.04982580793786151
0.00536017757034464	0.03962929381377924	0.02470556646244144	0.05465551947462154
0.002172550418283687	0.03509635721008758	0.04954292936837444	0.04420261226729794
0.006556511144392449	0.01188604075055709	0.04236829374028939	0.002537591010874629
-0.01031697310686459	-0.01289488167928682	0.003350422138771196	-0.04024187135728589
-0.01409190961988502	-0.02272938271271599	-0.01895634140926534	-0.01545882692571098
-0.006280296085491009	-0.02338047209119381	-0.02192270341705319	-0.003379424464445455
0.001230994919146264	-0.01410325147135044	-0.01662995510429078	-0.0006440032986403232
0.001804273137508407	-0.009193092576320882	-0.02903094102462596	-0.01091576734652898
0.002146935650382069	-0.007239091507838904	-0.04144252696662279	-0.0004229397283994318
-0.002208776635272755	-0.009086477316633649	-0.03285211159478434	0.005810043978709263
-0.004077571555565032	-0.01746789059315609	-0.01320156010546638	0.006825119504675269
0.006999088826129229	-0.01580314623675792	0.002816071137372911	0.01571148395018191
0.01099954942231109	-0.005458846313094094	0.02548949533528796	0.01390144756344193
0.00511582679715556	0.0002856210781512991	0.03472798824176297	-0.005442185266850751
0.004861710988657795	0.01367563269825258	0.03351153882818594	-0.009526863616660497
0.009135800426788479	0.01851054537183961	0.02188091374919319	0.03918036547265792
0.003525412707152965	0.01224162164103063	0.02056116896062244	-0.003617873367647329
-0.0003906812459138661	0.001568150382604139	0.006750759315237117	-0.03859789445801924
-0.001975795165162297	-0.01135400486400588	-0.02102653606849153	0.02827876999897333
-0.002229184090128014	-0.02340528512318737	-0.03484372000691304	0.1235389499042954
-0.007235170103096996	-0.03366981520363137	-0.02898930064312261	0.05613356414671358
-0.01385081131016557	-0.02079270978491929	-0.01242069616424837	0.003439493665174693
0.0005692076270761964	0.02145100033641378	0.02896206876660062	-0.01392358008336562
0.005645029183490906	0.03409168469931861	0.01284517669984646	-0.03364226499358534
0.008121251113103793	0.03912156771812819	0.001909400710856417	-0.04805949302623033
0.01221441524126595	0.07292448407660998	-0.008379148361481485	-0.06162899863010298
0.008091788305067092	0.06834323157257542	-0.006596681331366929	0.007632322900334635
-0.003388530854786519	0.01436832299216885	0.007424027923547267	0.1335024790581385
-0.01179584458810787	-0.01562599436536507	0.007944576475625567	0.1016036716699461
-0.0281219797108891	-0.04210233969750942	0.0115037129170564	0.04166461815703649
-0.02701355177078045	-0.05138961323162997	0.06417149836020712	0.003523033005468694
-0.0182947424347181	-0.04727438327435365	0.0237989225212062	-0.06470821306451008
-0.009687383225491118	-0.04718483395824143	-0.005995126580154002	-0.09895193747938218
0.0008084099342571844	-0.03535987491872124	-0.03866338190585116	-0.1101015988762735
0.005703366881859979	0.001245111969035191	-0.0343451886055489	-0.06470313187183817
0.008594844711441625	0.01985162964479769	-0.009896377879817345	-0.02179842296700178
0.003164509337424029	0.0146341832096689	0.001145161361122155	-0.009230272476209942
0.002883102768319241	-0.01542247185371313	0.01689675472333597	0.02947055477859744
0.004094856637640534	-0.02748387031607471	-0.008931546658582427	0.03654215405719793
0.003015238314453417	-0.00275103544020336	-0.0346409166814559	0.0111053733944705
0.0005684822239939026	0.01158193557072322	-0.05165197036877524	-0.01309797472790573
0.008624436152132979	0.03685382763957639	-0.02340134363745025	-0.06151441220258314
0.01992651246562126	0.0314658237302228	0.02173567843483444	-0.05917985074294117
0.01262684693380492	0.0004704198956475516	0.0306950379042584	-0.0363771654583649
-0.001303612611642603	-0.02432709943035498	0.01670025350698785	-0.01020016941512922
-0.0001356827333848494	-0.03345259574567806	0.03204063398944754	-0.01354535368070212
0.008086780315848353	-0.02813043571262716	0.01972813667545164	-0.007503227978595304
0.01358638996600707	-0.01201676781826553	-0.005060820673226219	-0.002063128954357859
0.01263620002677235	0.00495376587079385	-0.02963189618790627	-0.003154595669698155
0.00208598767360922	0.02982859403584708	-0.04620044743354269	-0.002165176586951102
-0.004557120340964758	0.04301800976032669	-0.1298672834439564	0.00129084281880263
-0.005910928709461874	0.03591383752653373	-0.1156892150619474	-0.002663695964840145
-0.004145574372963761	0.02802019415060372	-0.07284571052410686	0.001235013567841149
0.003559697133516257	0.03305459842276179	-0.01363350049483697	0.01034110605586222
0.01027786546005608	0.03143774803070312	0.04529807856889036	0.005529804812738188
0.01967924197227489	0.0373597165521907	0.126769098662124	0.01096308540472096
0.01868254114033381	0.005553811010657508	0.1193432203468325	0.03008788471002567
0.006830793199073678	-0.009815979494051063	0.08414652609217485	0.006793506813235237
0.004271535992911008	-0.01360028245287312	0.06879611545516748	-0.01832424633738014
-0.003401142547122006	-0.02360535554945966	0.02440462395954147	-0.02548505607612001
-0.01177884411205148	-0.02239614968717699	-0.009419140861332314	0.03368191476084335
-0.007995344345091877	-0.01235318492034001	0.01287266608420353	0.006434793360273886
-0.01077781011123675	-0.02150144536011695	0.01491913733799437	0.015602672443568
-0.008125251156792251	-0.02550805624821542	-0.01345851316866529	0.04138638728586104
0.001132495511039946	-0.01605172916903597	0.003064153391047182	0.05057241931994483
0.01023940734112333	-0.005162324493086514	0.03765962736262709	0.05245971026758578
0.0008457926030342974	-0.01725884739544962	-0.01142609260650405	0.05183661500238371
-0.008571024691200574	-0.01410761757341205	-0.01131257811428032	0.04857447850155778
-0.004507603206180814	-0.007677590124761436	0.01461708651257012	-0.01443091053812252
0.003185632061998827	0.01822770705788174	0.00483880065273914	-0.04105284244905558
-0.0003875164259139036	0.02808311881312617	-0.006103340841712818	-0.04623595454876705
-0.008201837074879575	-0.03927010475715377	0.002666962528334505	-0.06296938265446592
-0.007232828814373842	-0.02670917240123593	0.009072774837923377	-0.04747457996226921
0.0004312158243868793	0.006133696574586529	-0.01553084031286123	-0.04940291193975774
0.008082418094741743	0.02630341822289683	-0.01866238364697213	-0.02833796186013541
0.009382311281172102	0.01885181034634827	-0.01953056445158104	-0.002396464121288716
0.002234102450871576	-0.001992923952607105	-0.0087521493750134	0.01876348907805816
-0.01345430965591619	-0.02382902579607774	-0.03137507454450474	-0.006669461992616383
-0.00649026902355778	-0.02963599971019705	-0.03461531505231729	-0.0224538507764803
-0.01153776812326001	-0.009143844175033956	-0.02424188408112559	0.05522745721837616
-0.01633057304772964	0.006288693917557868	-0.01331954740538147	0.04295944689386751
-0.0002040043688441899	0.01787739230672081	-0.007160823408407928	0.0001372940934994664
-0.0003881188921369329	0.009443827968854896	-0.01765952850113815	0.03181586051996263
0.005692434656623007	-0.002448939353186977	-0.01420392185557007	-0.0001074419391459692
0.0107346333028223	-0.004802443452477651	-0.0111451249624156	-0.0344511608755958
0.008019484127268706	-0.0007809614624877572	0.004441896834888141	0.02117525123863584
0.00600944700577506	-0.0009549269564739617	0.0008164278483606035	-0.006700726473118184
0.002059155725865391	-0.001802264106059931	-0.006734548349305838	-0.01744928752338478
0.0003923587761794676	-0.009101500103681113	-0.009649097385766777	-0.0007402280853124252
-0.002718215061197789	-0.01498239721211112	-0.00998281384995821	0.003406319900793034
-0.01570825332536477	-0.02036033881180949	-0.01982261687326044	0.01974607899964482
-0.02594166526888315	-0.02559261487624512	-0.02780357682947392	0.06162922288803249
-0.01603204705621866	-0.02492924158523108	-0.01555798923865846	0.06935636885642772
-0.006173897757467526	-0.008786170519279497	0.002801179549781652	0.05808627802241492
-0.006716023794974312	0.009500732843711805	0.01888165209331385	0.006431701943874551
-0.0004544731284932427	0.0231314027671271	0.02130410968559888	0.01307916394097879
-0.001010080948776777	0.02144663077892689	0.005615868124827724	0.03009475616230978
-0.01220134313584957	0.01703053782004905	-0.001572403367484704	0.006930063816257776
-0.01795710862577307	0.01463948156469727	-0.01282058191279686	0.006319750050393198
-0.01288562693474038	0.03374696554650358	-0.003017755691663412	0.006617322892119483
-0.01141098488752963	0.01569741544453856	0.01271058318152813	-0.04261329004167588
0.0002947182381202832	0.01003545561157222	0.02296523558608759	0.009392678674277625
0.01385001402328841	0.02501111984437613	0.0331485421065124	0.01952386316142048
0.009098656138275358	0.001610981599719228	0.0411334767796356	-0.07191170722482358
0.005193003991862516	-0.02762480896189136	0.02201442869399164	-0.06455209122025204
0.009242680957023507	-0.02564757757359568	-0.008776791159058692	-0.03592934898867634
0.006979913835681822	-0.02097160469892707	-0.01393329053661124	-0.03507379498105854
-0.001318702214623307	-0.007889555682460444	-0.006291404437847684	-0.02010847218633368
0.004444536073042651	-0.001815587734924054	-5.452454785902848e-05	-0.02616344749230093
0.003829893483385636	0.03992676043365493	-0.003165599654632861	-0.04989447520738059
0.0006684944372408017	0.03827571602280943	-0.00746692525033457	-0.07406481835617447
0.002897531245343289	0.01965173469516858	-0.003247633129596961	-0.05069148324797583
-0.001250349199455275	0.0176900858404053	0.01474212097054327	0.006150799638621232
-0.002025004843117407	0.002223317669060059	0.006369421176127874	-0.005267110858155418
0.003160768637921923	0.0002420643975148928	-0.01511231990454028	-0.01770121865720525
0.004867608007068753	-0.003124350435169321	-0.0007083886695641862	-0.008449560561293409
0.01107782302388194	0.0007002871872959266	0.01552076976277656	-0.01064079677505323
0.015315026369756	-0.0002966189609958509	0.01367519593178607	-0.01383586191996081
0.02227856381364652	0.01215717636870411	0.02126198324512015	-0.005855276521468718
0.01251578193075421	0.002411214726742617	0.02347863587748744	0.009358091054189631
-0.00255289471173659	-0.01228812503503563	0.01271147170094369	0.01438382406387155
-0.00257039312727816	-0.01872588214040219	-0.00123140697819255	0.02551501760072405
-3.340398558752637e-05	-0.01625512683364478	0.006373874337210383	0.02593067909891532
0.002940095407225893	-0.01490761052277724	-0.006805908921520862	0.03306021450855283
0.0006670535084445136	-0.01794550034024343	-0.03359844089379359	0.03730339140726283
0.001080824018084555	-0.00948105030137387	-0.02074449309223459	0.04148806316825704
0.003484044529964852	0.00400733344988872	-0.001383402178439727	0.02865918593400229
0.00244705174375177	-0.01036042743139916	-0.001467002857262242	0.00529924920683989
-0.002219686105396942	-0.006915125239203269	-0.0178827528091612	-0.01149754447290476
-0.002580269230596183	-0.01092759801379602	0.006772124835381726	-0.005773630969310862
-0.01279747521651613	-0.03798493372024923	-0.002943618396880994	0.04366765357046941
-0.007285305232044614	-0.02880075269035126	-0.02375760422176057	0.02734047855092939
-0.007353091976901943	-0.002730755284112241	-0.04112314068702822	0.01689077304568058
0.01478363728033629	0.1017942147263926	-0.02146577708358917	0.0156821306943284
0.01227162115943232	0.1023258173176206	-0.01570929115843043	-0.01153462830818004
0.01617406333261735	0.06660252405210612	0.009615686015470136	-0.03357343609017739
0.007970497512919289	0.05213512706387748	0.05629773701473516	-0.0621934933778179
0.01130224757790553	0.03485314671639947	0.08920177618711329	-0.05662419795125728
0.01033748807652828	0.01511343129594707	0.07643700788150286	-0.04605916832930718
0.006516148006111278	-0.001854426332972057	0.03466168549947111	-0.002936756762919517
-0.007714565718323542	-0.02690182701145275	-0.006762822801715432	0.09349797170196293
0.0002594558584714673	-0.01775998260509335	0.004222457953955414	0.1320597284814531
0.007110330742729732	-0.005716758888865457	0.007417563463108915	0.09573232034021793
-0.0008459236169538096	-0.01716876257752427	0.01497009573630682	0.1017009965125207
-0.006849326121974733	-0.02430642987090854	0.015930691686743	0.07590306287062157
-0.003298945850154546	-0.02833584560205376	-0.008718961191146913	0.039835163974412
-0.002491077938644028	-0.0207090853650818	-0.02147224202998703	0.01039974353448146
-0.002825750833410918	-0.0109438420050135	-0.06374080408600827	-0.01801244439658386
-0.0006747400417927488	0.01437159949363605	-0.06572686604756608	-0.009699451818520763
-0.002199604075657715	0.01437476717188498	-0.04052511532177618	-0.01848891683168693
-0.004334155211807714	0.00276393197626282	-0.01671578558951609	-0.0564923385210578
-0.01226846764781035	-0.007936635479958385	-0.01362939841871954	-0.06113739233571527
-0.0150253337673228	-0.008082905022290501	-0.008804009308627403	-0.06510547011769795
-0.01257943472509553	-0.01693823820391363	0.01982907645428993	-0.03205110706715284
-0.001854666201213227	-0.01606949216547739	0.04011232977151091	-0.02091968728051264
0.002037082176122773	-0.008059204040861436	0.01844365549250396	0.03630113616143038
-0.002368592933877002	-0.01384900596573682	0.01496344687009064	0.0535966392009861
-0.000417702993688155	-0.0204276126730777	0.005040652676980885	0.01018055849863917
-0.0001463189837795502	-0.01210931791142162	0.00846912063797061	-0.05329976623338594
-0.008126929265748858	-0.01857335570010133	-0.001378856920031397	-0.09182830764393303
-0.01051945219871842	-0.02710057772518136	-0.01529008639601065	-0.1159274268262784
-0.009984022289879336	-0.0328851139366718	-0.0295545961729515	-0.1056657280698966
-0.0004819757012559402	-0.02691787329551324	-0.02882258320284998	-0.05602804864776478
-0.001575720108061615	-0.02572724666924129	0.01986921186215859	-0.01988951479520553
-0.009081073878950347	-0.02508576652053119	0.02884126067977259	-0.009171054459679378
-0.01104006989790531	-0.02857726363117095	0.03887921038906024	0.06748319037940072
-0.008536224678490949	-0.0291894843577706	0.03018822400353894	0.05745676291979702
-0.003686988718219026	-0.02722129565199732	0.02016611672479363	0.03310236922894837
0.005078242702699087	-0.007709299026968842	-0.0122392694624926	-0.00438315364822492
0.00393628010950435	-0.01559434006611848	-0.03819982055024376	-0.01064860873213267
0.003866557022980352	-0.008295329092441153	-0.05609511941858654	0.00314668664021717
0.0001639005630220563	-0.0008643256158147381	-0.02346205148963139	0.01485550860369521
0.001716790917449102	0.007769114201944017	-0.03136269157591156	0.001630758611183755
-0.006272534850724561	-0.004730494399297918	-0.02275113002732792	-0.01629239981744311
-0.00456714338949962	-0.001354672416754045	-0.03451895485139157	-0.008391075849839884
-0.00397050350880672	0.01167900775359419	-0.02400688098069093	-0.01121922559118825
-0.002157480889818106	-0.0008400871699368655	-0.03217802432936195	0.001168939500842649
-0.002720256676026789	5.964458215313317e-05	-0.02656460981649975	0.00660506424168083
0.004157872998628262	0.01192895501810675	-0.01312015346285666	-0.002087952072640426
-0.0007187301921886122	0.00510900327089841	0.05173961549844647	-0.02013682400033817
-0.00167467632698856	0.002493395474579753	0.04096406311627421	-0.02381463794588766
0.004300614690310537	0.003258658002097089	0.01659864520899376	-0.02291421907615798
0.002804897059002881	0.01592600318631125	0.01589506327407697	-0.01201413587126847
0.004445130472206927	0.02652453723941858	-0.005801606881738867	-0.01073056544104131
0.005881209242458185	0.03335399450314589	-0.006974586591023872	0.04755572225506027
0.02547864356023103	0.04980295622192896	0.006736553562468563	0.09952645605484063
0.0282518116984694	0.04457693449646867	0.0335011211675648	0.01027396485776998
0.01972615231010279	0.02247468447053384	-0.0007208233569735042	-0.03542822318563849
0.01567021134834047	0.01602781586969354	-0.005794833379624024	-0.001335786578486593
0.01511341722749407	0.004392287887205438	-0.02982533288690701	-0.003523669472052011
0.007194356000151576	-0.01723222763732726	-0.01769006004390254	0.00529267183817071
-0.004040723287671377	-0.02980808873003762	-0.01474528913233953	-0.003663565146294125
-0.00504646540589197	-0.02743854911595673	0.008456007678644189	-0.01479671575396825
-0.01057915548860104	-0.03232501447585292	0.01033443148853892	-0.01433873861779459
-0.015279541400297	-0.01546643129036481	0.02351039047863046	0.0279254437094107
-0.007951228375032164	0.03312672764129895	0.03457645527723174	0.01146717557102583
0.007969897063584412	0.07252417931684461	0.03598579360583049	0.01283637673555313
0.003182543922977282	0.0572273683799752	0.03417010157735965	0.04877492018910114
-0.007779950550365666	0.02739182050078955	0.006590361171105156	0.03080326309652819
-0.00572086769745116	0.01102914883574835	-0.002854993388085341	0.02298245129862798
-0.001874824720946593	9.132156680860002e-05	-0.01718580488435956	-0.001332765493715149
-0.00803667472350241	-0.004832157095287114	-0.02957957933585839	-0.003434582142380164
-0.008899455850683059	-0.006546773174948974	-0.05371636068915234	-0.007458816575359327
0.001910351072778976	0.0008755683223060488	-0.04503928924239282	0.03964877322715335
0.005234703141235018	0.01201782322544218	-0.02212198501819104	0.1257387417200022
0.007975943476456852	0.01656283755484514	-0.01157668246653083	0.03234050910396104
0.00543162440566373	0.02408347637882447	0.011612285829622	-0.01467606187543623
-0.003327519432721772	0.01498761408742431	0.01544093766877122	-0.02480942402696478
-0.005076677300729106	-0.0007954315953349272	0.01741960186299816	-0.0157662475973277
-0.004170476083490919	-0.01113989817815622	0.02811927128123305	-0.00712211956356704
-0.008638156877476502	-0.01209053197551421	0.03549388950805121	-0.006974531919980256
-0.005426045181065837	0.005650897968349885	0.02715873167406987	0.02275707875371583
0.0001314539358837601	0.009299036935600937	0.03065082407512786	0.03800184911884951
0.001151480276251378	0.007163304811764209	-0.01435732688410938	0.02844203922007489
-0.001341796383023083	0.02061485074191104	-0.01359091259981956	0.02550047955985039
-0.001598874872519852	0.02966238431233868	0.002137248122592117	-0.009886678051926933
-0.0004664792168030865	0.01240880221506785	-0.0006291409933290859	-0.06741758488789114
0.0002481114318703323	-0.01110776696174278	0.01038706224411894	-0.08605818116755963
-0.002801578611561777	-0.02545392396734943	-0.0007195075823210778	-0.04710537996934391
-0.005125737208052764	-0.02680225009506898	-0.02263330453553309	-0.03196436325740552
-0.001252369053945194	-0.02780162623893993	-0.01811080708686533	0.0154585447735729
0.000930649756074126	-0.01897630641354628	-0.01001624957454245	0.05090229277010815
0.005553558264925207	-0.0006393141901733128	0.01052522811578867	0.04400482193235251
0.003672862742192771	0.001890836008933896	0.01280459484303306	0.008680448014047909
0.002375920123325944	0.003076088005319373	0.05694666213883968	0.0007782264183940894
0.003644031103572022	-0.006049146729750699	0.05738181146541284	-0.04196864622870078
-0.0008038541228533054	-0.03773705151790694	0.02886618584468848	-0.06946024443625994
-0.001683816022815576	-0.0380837132590339	0.02688619109588817	-0.06072732333420259
-0.003238444755685614	-0.03088433888708684	0.04691729788625498	-0.04542413155260223
-0.00357039454137969	-0.01878248978485896	0.01875348074122691	-0.06185412361311843
-0.0002373876296974999	0.002136171190896059	0.007274921029286317	-0.03601215801202178
0.003227666415721585	0.02493254781866622	0.01596001160843767	0.01651778019278065
0.001538911449549391	0.01574542956255574	0.01079694624113271	0.00260323759272914
-0.0006762692867187071	-0.006927518823369616	0.004435386289675893	-0.03029476970583406
-0.001266302953262697	-0.01067573942438605	0.001196141150328526	-0.01746655992245172
-0.013730677738661	-0.02292504884143893	-0.02228458519087504	-0.006271379883422451
-0.01273940013990286	0.0002798062921082284	-0.03866151245139417	-0.008952887204482703
-0.002342125244141342	0.02271300713902892	-0.01665601676487312	0.0007441274752307517
-0.0001689030745222487	0.01367171983280067	-0.009497125804102693	0.004555892888894175
0.005710838083361783	0.004034408703815414	-0.02133776256798668	0.0157676225337322
0.01086466640495903	0.003692323865734895	-0.02725768154698619	0.02970290021928324
0.01240170972716105	-0.003877717783567606	-0.03280485113293944	0.03259450142338785
0.01385687842346915	-0.001101847933500761	-0.04630364922462527	0.04433062039521409
0.01151397806057166	0.001288863224844543	-0.06160747854046038	0.03260582181255916
0.004323907289413969	-0.005694677583624246	-0.07014509633123991	0.01450086264332634
0.003670840802749845	-0.003687101904199891	-0.05310686965641192	-0.007406398563028329
-0.005782799914913792	-0.0001562438842385365	-0.03077063696211007	-0.03900222411273799
-0.003688336429603082	0.004357872632531398	0.01687228919268871	-0.03836224861872461
-0.001569062112739758	-0.001588781971859202	0.03239444216237109	-0.03472547290437781
-0.0008968936897405729	0.009562534006897048	0.02820598642116242	-0.01954544315764918
-0.007873057898629068	0.000133188265103498	0.04825252809262538	-0.002907944505326192
-0.009789747809036723	0.008495982808814624	0.03370451208367186	0.02861571304166684
-0.009266270750838863	0.009971677724019861	-0.01123426104140199	0.0382275628185675
0.0006963080318493198	0.01128754696736406	-0.02637622944523674	0.02467887115470833
-0.000968043384443718	0.004600753204669622	-0.01774185878852189	0.0008645805021692213
-0.003107351357337525	-0.003224403406380512	-0.008292133657226083	-0.01584145347561467
-0.002819319670877019	-0.01170360898420938	0.00862509563927729	-0.04600877719859506
-0.004911429515554845	-0.02486030711320196	0.001148026211223261	-0.0510105619922224
-0.004028653601402315	-0.03062864006795174	-0.0001280469963646235	-0.02735270349435462
-0.001845070479632268	-0.03025601417095774	0.007325990803561663	-0.01075497457102225
-0.0007264226577170831	-0.03552896765427568	0.04479162152009738	0.07517189473115295
-0.005037629243541297	-0.0385069420028907	0.04544349797568856	0.1230177412378259
-0.005189632090575005	-0.04354293177926108	0.01571471512571516	0.04092908397761312
0.002443437517816384	-0.0369195921586136	0.003224003793544897	0.002782075045214509
0.005186692345469429	-0.02713263405006763	-0.001221153283213044	0.01197456310578505
0.002941633771685432	-0.01541706594453734	-0.004391629039989907	0.0306912404280073
0.00672451178149912	0.0006913648009252148	-0.007019149869858522	0.02543113459975344
0.007421434166474015	0.004735766462636255	-0.01752608702126577	0.01636971617312016
0.008420255712497104	0.004195849509990447	-0.05450517038044647	0.01342424130826428
0.003784809527183263	0.006572719213394893	-0.06087857617336927	0.03746488401353571
0.004449455392560652	0.005435133310310251	-0.03940645780564355	-0.01505875452637031
-0.003544795261766438	0.01899678246202309	-0.01741207898059038	0.008359431151752751
-0.008708890587621917	0.04363802232295137	-0.01428669615644478	0.08296126414852643
-0.0005597378111763146	0.03138759391668664	0.003199153087968403	0.01869137965418614
0.002606632679175098	0.01200705447065135	0.03821742478181352	-0.0148722660710792
0.01017676509323115	0.005097269925551184	0.0290007351159632	-0.02650095326359131
0.01092110369858757	0.02627838143159423	0.006243881422679123	-0.0261589178220264
0.006530235725982593	0.01825624028945399	-0.004964212935747086	-0.01853209459800461
-0.004593634056037772	0.01196563486163915	-0.02709568505125573	0.01002675800599202
0.0009347961069850834	0.005672212870261956	0.001887606497259813	0.003698724525177333
-0.004403448367096535	-0.0007684695119714157	0.02348892529350344	0.02527472551274751
-0.004391184784601942	0.03544666952167083	0.03935827511604659	0.01528745639378699
0.006478419956752818	0.0617372454228328	0.02038717038068324	0.006475346503340855
0.008136171328990865	0.05952908208962229	0.01969532415941375	0.03015445131470093
0.005735951490234504	0.03585532753906323	0.01585916562945725	-0.03355099620671561
0.001285183407884638	0.01780579127874572	0.004883546075876702	-0.06073105961684136
0.0001242348284507608	0.01154631549257168	0.007079718423262662	-0.05965535649134264
-0.002952844873691985	-0.001302318791579993	0.001445158420046531	-0.006738202341970946
-0.003350222870544157	-0.003521178171452029	-0.003078041872479822	-0.000545422757972254
-0.001417378714232489	-0.01618529556499654	-0.009061685022049079	-0.0003578170779804481
-4.658035954899247e-05	-0.01758550254680451	-0.02377817902841417	0.003525583590146571
-0.005862888884700373	-0.009220205544169063	-0.002768849619856147	-0.01381487885945869
0.0003428457503133089	0.002902966602789021	0.02899600525797949	-0.02647880501837696
-6.937826051531803e-05	0.002704267019728388	-0.0013206903718059	-0.02487529317324299
-0.00337718775792787	-0.007810119883045984	-0.01291884935156556	0.002786630667396876
-0.01291427089055036	-0.0276502003257848	-0.01901313046886596	-0.001879855549070664
-0.01245718616527384	-0.03948978032358313	-0.01438332984057533	0.01543138973464445
-0.01446606758846434	-0.04307407050379235	0.001435172880102619	0.03800803919428909
-0.01473428420605545	-0.04169152880335698	-0.00509318587322453	0.03250401969495359
-0.005121135310670114	-0.01739645109295219	-0.01795253169644871	0.01859462524165673
0.001361599042940003	-0.001526422290096954	0.02307352620224061	-0.03476775908817309
0.001826042120176643	0.0003710201342756726	0.02273244075326537	-0.07155629209375494
0.003906782683555919	0.0265170074186215	0.02450504332964231	-0.0708437646714625
0.004343470645438534	0.04447707942835488	0.0189667246666027	-0.04604193348282053
0.005253470127325032	0.04281402570487591	0.01249983478469549	-0.03790775230715676
0.001702319528189501	0.01538652606813846	0.01841955619371248	-0.0234522177989059
0.007090709355342021	0.003526266162432238	-0.01486734041324763	-0.02904054843922725
0.01521860744416476	-0.007456277698519321	-0.009779330118553154	-0.02443522128218218
0.01350565419562916	-0.01883854922141428	-0.004422751099862879	-0.02299306247365605
0.01312800768204217	-0.0187174853669521	0.00855708468374123	-0.001797493120545271
0.005951649233164259	-0.02013653949011365	0.01014456755847322	0.0187378365903497
-0.00186181764422625	-0.0114455837465104	0.01549872516620753	0.01766435345870446
-0.007955452917875893	-0.02313060824613474	0.01369173299935908	0.01318951274012016
-0.002804346304334227	-0.01250843592810497	-0.003009757272635202	0.01539324467064772
-0.000371834878481668	0.01044245567570337	0.02139547835142366	-0.02870762506583336
0.01069065784412902	0.0450419789589617	0.01883986984093153	-0.04653220387693321
0.01283635268407922	0.04492271829710495	0.03195570829650291	-0.03128337599362816
0.007921252601883732	0.02649092070910848	-0.007408838329346709	-0.03720018455698115
0.001030238296827231	0.006797807971094861	-0.004901779261897134	-0.05838546833045398
0.002826663442890556	-0.003002253042640738	-0.007080446521813431	0.02004593405100073
-0.00341253741181929	-0.01222879037461857	-0.01732719297594517	0.1552854155245283
-0.007509100194173966	-0.0254606170933707	-0.01996811313724605	0.08293832366213588
-0.01455125725495942	-0.02253079048721071	-0.0176280211239277	0.05019265051798596
-0.008108308801184426	-0.003766469051132168	-0.01304622717786674	0.03762444188609429
-0.00929823063436065	0.01238402849271506	-0.001679075759848478	0.01735980703778754
-0.00421402638603249	0.02199364449075336	-0.009370982995530068	0.005491168153695963
-0.006228389029425745	0.00696052441064862	-0.0106862351545414	-0.007802150924375062
0.0005850533923807798	-0.005923173701490406	-0.03958085302820591	-0.01057092842065539
-0.0006186761263944536	-0.01188222137076786	-0.0353707621038365	-0.00644559987053137
-0.005351770983812814	-0.02274270282185607	-0.02981850166166245	0.09238478826046917
-0.01252291609753018	-0.02196365632412814	-0.005151825583322989	0.04405648804223305
-0.0128843016919684	-0.03392765646032306	0.007737010115325579	0.0120968439092884
-0.004048248556866969	-0.03628033553624824	0.02166743294399901	0.04678541142999941
-0.009734815397115791	-0.03435819398243613	0.0203564421868845	0.03172805763501473
-0.007379673781577824	-0.03052180089548906	0.01771666774405268	0.01532465537862548
-0.006471546057721369	-0.02098071862673811	0.02725038452904338	0.006283359943982712
-0.001554428024917812	-0.02489217249557899	0.01609962482034145	-0.002273261626732024
-0.007638156794832316	-0.02453298230190334	0.01469884306042555	-0.01033162443521828
-0.008657132107882036	-0.0265159597784826	-0.003816885168590898	-0.02596672294798726
0.01135999463777099	-0.005892490759847616	0.001179676807540488	-0.03497062224659647
0.01602852316562811	0.005602983912593467	0.001170213577267343	-0.03264264463991185
0.003352004547277864	0.004522446935144579	0.005624889184754203	-0.004778314830574757
0.0005361760285206722	0.0125024608094632	-0.03140464230411411	0.02706787943528485
0.003546116027639693	0.01025121839106839	-0.05208668809975327	0.01519711998903454
0.004528960301957027	0.02763132202192971	0.01410220711112117	-0.01417932847463725
0.002638984448483323	0.05053288264229262	0.004852277124357368	-0.005530606663361014
0.006340275696252359	0.06970578539880466	-0.008485062596781803	0.01867281343938837
0.01163965937801572	0.06212393074836306	-0.00989726128524142	0.02808133968717661
0.01421152526157638	0.04264754367286773	-0.004299160460729921	0.02068559100481327
0.0156079014532776	0.04424701246008818	0.01034296745813374	0.002264715999234262
0.01305486764107446	0.04280129705577354	-0.009691344311198532	-0.03709300331545314
0.01937401495034656	0.04446810848642282	-0.0207906262746085	-0.03786745509214441
0.01209836694190355	0.02723087729324876	-0.02312255155108267	-0.04774801095646376
0.005511043071136028	0.0190388925580682	0.01526313361258489	-0.002328591264758331
0.007087164453290751	0.01296871796145474	0.008303563431098806	-0.03225815780300072
7.998977742235873e-07	-0.00368297835405023	-0.002470643727783947	-0.06192838758607058
-0.002583652185716	-0.01776399924638441	-0.009338742229489719	-0.07795786026624024
-0.008093909082989043	-0.04009943504043172	-0.007036514866452129	-0.06520623057982468
-0.007763159780034785	-0.04272240321925412	-0.01306455892792314	0.000889337550709223
-0.01345760278630772	-0.03116288337827219	-0.02267472898088006	0.01960879606881454
-0.00219623071310299	0.003457696464871915	-0.03387916191987472	0.001601384302653701
-0.001672441714494019	0.01580490109389627	0.01381765742191311	0.00690809272091695
-0.003918471093697512	0.009529939659853512	0.07724148236260416	0.02405438582596647
0.0003479369942759237	0.008111617543269148	0.06085556094772461	-0.01002800479395044
0.004492067351646917	0.003598226895275958	0.04579812930457283	-0.01738529594139597
0.002788996970203211	-0.01745874823907529	0.0002082203594795798	-0.007215800280461951
0.004352321012255306	-0.04269470254215121	-0.05536197372480645	0.007421350172699497
-0.00192096369710931	-0.0512226572365158	-0.05797848870656135	0.005936032570386201
-0.002330448599767008	-0.05331941437644443	-0.03287544264318417	0.01574754265769662
-0.01064093139314925	-0.06578978481501505	-0.01377577632861273	0.01990700641277991
-0.01194498739706402	-0.06134568639194601	-0.003351107668398769	0.02175980069434563
-0.006091955833647151	-0.03900613239996197	0.04391339175528407	0.006083487667955614
0.002787944371780748	-0.005305689134277755	0.03087354743502602	0.008448121233178993
-0.004461758821612639	0.03035203302856904	-0.001416203073063507	0.004219168632705553
-0.0009516083017375372	0.04758193939010923	-0.0540499057431143	-0.007455337962546129
0.007939330482763495	0.0413279973504727	-0.0320714693355908	-0.003458970964212701
0.002123532851293978	0.01668902619816076	-0.009650157949720852	0.002256745917887471
0.003483991911281878	0.006580945007212049	0.01660822642359977	0.01451294024459019
0.00692323544260666	0.00332038425440545	0.0188352952754804	0.03143197433512716
0.001694460047323462	-0.01937874464752885	0.09228157691168605	0.03946853173468279
-0.01214619174686564	-0.03299757095940129	0.09392397779570098	0.004553077697952388
-0.015490307538067	-0.03194543220682095	0.01445655353536348	-0.08491827901748136
-0.01386542505999487	-0.02281071779230272	0.007787385120725824	-0.08131219540154179
-0.01382942781218821	-0.0206728215352603	0.03184876288355511	-0.04693810995457282
-0.001896919939928433	0.01150510904924828	0.02031548608255977	0.03504434279207312
0.001082922320035784	0.03032435188088312	0.001131463437176094	0.1450690946935435
-0.00201425847770398	0.01994703464510953	0.01094082303808728	0.07699171415752053
-0.002865645295924989	0.02074391061680646	0.03382782598917274	0.06323610434256219
-0.003812173853822268	0.02339500729403646	0.01853335871127709	0.05365223699867747
-0.0007586201737891333	0.02331911091609756	-0.003730472042900829	0.0007172172111108408
0.006087850371900167	0.02404428055743226	0.004081292899625374	-0.03492933300721896
-0.0003066209866871495	0.014019298504326	0.01236150802593027	-0.05858526617967075
-0.003670022877816411	0.007511454746894842	0.006009089865486194	-0.05651613054358977
-0.001064433538617116	0.0004059215263234807	-0.01819532282472668	-0.03280235279284534
0.006777729107918494	-0.005459142783732242	-0.02482732992718147	-0.00739907022408405
0.005105772981843696	-0.008324950304239862	-0.04062439653582555	-0.01173404340931753
0.007690070652583806	-0.002902773889208587	-0.04788298337531197	-0.01406441197803087
0.006357654906464385	-0.00111795568447846	-0.04613174015325047	-0.009719316689308952
0.01722135001945837	0.001513625936407374	-0.03432076163257724	0.02372177117174427
0.006146000442512824	-0.01192853848553682	-0.03965872047301895	0.03296846343149619
0.001214770654788559	-0.0222450841059357	-0.05311262174585789	0.02374643271139533
0.000373669225032515	-0.01521654177491155	-0.04397980571704935	-0.01879545655001658
-0.001267881834302013	-0.009920795479082546	-0.03861323531101506	-0.01850124478809063
0.001180428702492044	0.004565492275991286	-0.03674519840407361	-0.03444013796998405
0.00120077808040141	0.002440974066785877	0.005887322428163761	-0.05025894277216595
0.003921711790000853	0.002635540289645037	0.04045480436371498	-0.006786018653997144
0.009738858096406112	0.00159398725850952	0.04003793321696256	0.105193682769278
0.001379161103440675	0.002050792135835307	0.03587112313940025	0.05079049181398147
-0.001458982325768806	0.004401338345986632	0.01911067309666164	-0.01586043824225247
-0.002722845878037799	0.02227832622850501	-0.004973535371031993	-0.02081012799424067
-0.007182980205374449	0.01617074303489906	0.0003186596144532142	-0.037128631199942
-0.0191936659079177	-0.003754228783722161	-0.02289384822327102	-0.05405315953235459
-0.01424114827154059	-0.01138425560051415	-0.01709676284671765	-0.01436419686823118
-0.01279960655059673	0.004383817779826868	0.007918919752341718	-0.01472883069190217
-0.01143814421075795	0.02944480827205513	0.01757312656961534	-0.02769871331276433
-0.01780637282576034	0.02556751396011553	-0.0192766518784	-0.01607977522633055
-0.00935342532238639	0.02208316930970858	-0.02184403620061378	-0.004441726798613806
-0.001754993206862361	0.009663074550197475	-0.03920852247884814	0.01915718281782765
-0.00138906280941648	-0.004100637580882771	-0.03840089049778272	0.02126810789821679
0.01048182434164719	-0.006810742919393778	-0.03049365572946293	0.03646604455358386
0.01666736108624485	-0.01459591839426515	0.004031206483479268	0.0532984960939893
0.007949900046177035	-0.01755348224430181	0.03552495882006922	0.05531816927797824
0.006644349702512647	-0.02072463387522649	0.03725463582799621	0.03400008653551489
0.009034002398802959	-0.01845014002662025	0.03023620156048324	0.03858959627606266
0.02167535369851294	0.04359062654625392	0.02646984055965776	0.02513433672150309
0.02079280632065412	0.06237451330785197	0.01263667506776837	0.009515050883463176
0.01438243625862155	0.04952187946190525	0.01016556281774544	0.02232369060095258
0.0115416862659023	0.01898933882366082	0.00535247569131209	0.09173126393443917
0.001989024442204746	-0.002655559976719732	0.01350793188630436	0.07755898737938308
-0.0009426122870268414	-0.01019844930263751	0.0104144990193168	0.04796328316181479
0.0009539640354445197	-0.01780219795468833	0.009343825194481816	-0.01313786907688387
-0.005767462530869315	-0.01697725618588967	-0.0009139218448992291	-0.1059326778509398
-0.01428462443226364	-0.01421564450846994	0.002841638295628004	-0.1297944348762654
-0.01452921890389673	-0.02278652863083398	0.002729456616593748	-0.1212247387135146
-0.01112693588843482	-0.02295873221474181	-0.0275443193115112	-0.05090973266104875
-0.005935611918200704	-0.01150362281346851	-0.0336129260157489	-0.04981263115196367
-0.01103441374432852	-0.01700187428012058	-0.01652876712519033	-0.06786704737036138
-0.007022674074612364	-0.02517627866528172	0.01333247990488539	-0.07036598227051202
-0.001631324670990219	-0.009908029725789243	0.02562443072013313	-0.03668928140004287
-3.211886165102743e-05	-0.008976018079551968	0.02106638766548689	0.006160503078705756
-0.01003955748175525	-0.02549917301533858	0.02834560592935273	0.04629743506815933
-0.004935525371176165	-0.02761685220056473	0.0461535750463135	0.03548516977391036
-0.003938170927549774	-0.02831596533863484	0.02586368054851157	0.01921175355897142
0.0002032355201989723	-0.01120495630804076	-0.01899270592009893	0.004289069175492329
0.006834225906021256	0.007750687051967398	-0.03416973707366567	0.004178881453169192
0.008450032930593406	0.01823849372548473	0.007307505608572937	0.01083824441920126
0.002628166418571366	0.0115608208010333	0.00788200268734913	0.01746696565893519
0.0009140323405604802	0.01771368995748204	-0.02099991017709938	0.01922464386097394
0.004808949127069232	0.02621386726528245	-0.003496869780606064	0.02292875047774742
0.006183577650501839	0.006748786501402318	0.03001851839809802	0.0376067897209614
0.003719295124471448	-0.00218362519716253	0.02639136217925415	0.03320607866175743
0.01245929025974858	0.01732332464107306	0.01982766967449489	0.02378311387974055
0.01106506340776833	0.02244618178238812	0.02897400628880914	0.01069246124886194
0.003557796267540076	-0.003980876609918163	0.01344759914707484	-0.009029180901757743
-0.002047472048030241	-0.02914526738768788	-0.03115689175007404	-0.03859710572501331
-0.005005906807251472	-0.03406838657811196	-0.03960389257161868	-0.04800596372063339
-0.0002646205402711432	-0.02724040508798097	-0.04303951731291367	-0.03480558913404117
-0.0009937197736215608	-0.01791033141014899	-0.06354237747624206	-0.009090859630116412
0.005337908998710078	-0.002881096699631591	-0.02832862354166088	-0.02731449262930628
0.005675357794682426	0.007111139008712858	0.07518156480841867	-0.02954654487758275
0.002396451151684209	0.00665512072443927	0.08220462668718199	0.06087586765833149
0.0001003233340784981	0.01720489881770121	0.08846003602443769	0.07785969318651764
-0.004365411316460304	0.02497361656806892	0.05603703440961589	0.03406722182625681
-0.008761772810094531	0.02161925732470124	-0.003219190310761857	-0.03631499084036945
-0.01258825776323927	0.03720041605376102	-0.009962245171335109	-0.03661983528351496
-0.01019251178129185	0.04345591978203193	-0.02292478504071237	-0.04342982354880698
-0.007045206399636981	0.03978488774895599	-0.0167270640736925	-0.04245927776269436
0.002297853940870694	0.03087027411852885	-0.04655932314439717	-0.03454222508022502
0.005061062000309392	-0.0003191789992936585	-0.01756401639678914	0.03461115401669625
0.006523021072149614	-0.01513483458592653	-0.01635234377786697	0.03191974030252665
0.01219978106454056	-0.02174133242231189	-0.01922223372609374	0.03451981490993458
0.007933227900473547	-0.0232489090382422	-0.03077801073978217	0.05711790072679099
0.005150119457087765	-0.03294680630302642	-0.0334182727175895	0.04722455142093827
0.008914283255030245	-0.01613602044316208	-0.04044965525272459	0.04411990518359194
0.0102877948427748	0.005525892240238675	-0.03012782580535792	0.0390316976878138
0.00479692349688744	0.01441496794548761	-0.00557575032340801	0.02757037583047631
-0.005389800768951824	-0.006273155037210348	0.001465496161247058	0.008213132555313609
-0.003232515282510358	-0.004673078649287409	-0.01674707756549785	-0.000922490312702556
0.003459293067390969	0.01350589721219668	-0.01940025555309222	-0.02259627422877581
0.009702066088091004	0.01504458033494338	-0.01030028843729547	-0.007880357125925639
0.00818853543275639	0.003562233971965856	0.007534014155028673	0.01196328091525431
-0.006985490266238293	-0.02248131002187649	0.01757448048226223	0.001587977963454705
-0.002736646551650374	-0.02392667104801852	0.007083082789539567	-0.01524310509469362
-0.008596211132500652	-0.02704480320405301	0.02597555370230529	-0.003087341421305148
-0.012034638140957	-0.05127547275844783	0.01492090916284748	-0.01475705524483318
-0.008164450201937075	-0.04019949348122659	-0.01825489871674795	-0.03112000685310543
-0.009683722611808505	-0.01750772998160071	-0.01814339941666243	-0.02753471834687294
-0.007233864190341875	0.01842019886961738	-0.0324964780118419	0.0148656270992885
-0.003114872238408928	0.0191596031579692	-0.01184108083119557	0.02929450357052313
-0.007787496349130143	-0.002092455599809132	0.002640800023764346	0.01804049249228843
-0.006599102992983281	-0.01523723702193036	-0.02907592845662782	-0.007454497554006329
-0.006529011731640221	-0.0120565585743381	-0.01109858933494148	0.001004769559556568
-0.01585087809898332	0.00306518181265103	-0.003505212985852518	-0.007037425926473544
-0.0189250714650929	0.01733105185164798	0.02522084530379006	0.001133366752899185
-0.01249693601186214	0.02910801073368559	0.04207420520864853	0.004646027861312725
-0.007090223829179611	0.02448976129494934	0.03950209277839582	0.007405127556298905
-0.01493374700107762	0.02390728305868697	0.02666270738127718	-0.02222022118911893
-0.00687299437598793	0.03942104795279409	0.005275588506720361	-0.04047111286770259
-0.004547853174947544	0.03463003229918177	-0.01573369331939484	-0.04907136545547765
-0.0002822903263244261	0.008649146644240343	-0.01207318224635768	-0.01899025957060891
0.01043221323405623	-0.011732236453369	-0.007366010366792646	0.02679235470233613
0.02225668358409419	-0.0116995648463811	-0.0004071113274486125	0.08923774864323199
0.02412496777977566	-0.0004004648593687053	0.01351608215259677	0.06678058085351092
0.02464612877143939	-0.002303263915556477	0.01496086426218515	0.04534417725825433
0.02264259386672316	0.006299009993576175	6.079537189541587e-05	-0.01333847560465328
0.01494975717663767	0.008585251875156288	0.009284545396417021	-0.09732905549123348
0.003704711670083832	0.01078472168184408	0.000381754223183923	-0.1152251259081865
-0.001441624837187587	0.0134116360033697	0.01575439747737714	-0.08707985681265118
-0.003281444142496041	-0.0007270311613072377	0.008049127561188148	-0.03664414593843209
-0.003981033305198143	-0.01436432224628684	-0.007519974046943743	0.05292322260929568
-0.004904397603268851	0.001357313838476626	-0.009593795319364508	0.04006120211862119
0.00118224436896357	0.01274078459947728	-0.01094150783126152	-0.03772958198924092
-0.008457686238277124	0.01223408307933112	0.00265365546338303	-0.03233880156703058
-0.002520511934652306	0.004749262001139104	-0.00521657513811083	-0.02093478725514946
0.006610556846801259	-0.005333179304817847	0.00565648511394855	-0.004866362266945715
0.008348416660556683	-0.01308154336934746	0.005117471171198732	0.007165939856917012
0.01711686963951575	0.0002607920623062813	-0.00933251834224137	0.04062518941850928
0.01802472404973339	0.002726070002125029	0.00951675595795934	0.04623331836836525
0.003493752285650508	-0.01391081756317212	0.01260054191603839	0.02786309554277732
0.005010709204731336	0.001400867828777089	0.002519423587334129	0.009414530693185041
0.01223850102449537	0.02277243944051193	0.0009229898944191372	0.004327074116104318
0.003542861409068765	-0.00196382703692531	-0.007731510832505633	0.005740054447492265
-0.003352519572847101	-0.01810728298616344	-0.02856581679559715	-0.01442559252288427
-0.01696778098781742	-0.06880450216285562	-0.03629919816438804	-0.01045494837751396
-0.01413945151830622	-0.04759023343750098	-0.0162054457159982	0.002918967513681967
-0.008493525279756758	-0.02938527464716262	-0.003742275059032899	0.02879912853040472
-0.003441284835431672	0.00202616919101079	0.0109201533647574	0.01709682095707917
-0.003211432030854213	0.02620912795264434	0.0237197341691589	0.00912684465466471
-0.00942988012064094	0.01124090137441234	0.04274190623150029	-0.002567819712625773
-0.008871823962703822	0.007651167858638416	0.04658402058447848	-0.004633990420461292
-0.01072531526598965	0.03282887754577897	0.02867671240128312	-0.005551412916663092
-0.01399503639029489	0.01375094604613782	0.01490797926315495	-0.006517408539044834
-0.009250053160479912	0.008641366667276461	0.01568385318694054	0.007735247347709323
-0.01469475478218751	0.006802006247943802	-0.01013379642339347	0.01798881438292438
-0.009713825817175807	-0.006666512331460904	-0.03109017939644583	0.006418861532794711
0.001885053349149829	-0.01113758765409737	-0.02231927734846552	-0.02373218796150057
0.01433845919460865	-0.01158612788460317	0.01082945587258979	-0.05499986160020311
0.0134262475615482	-0.02150705885919267	0.02446052688219461	-0.05376030916647381
0.01129385862839361	-0.02290114736664552	0.03999250714183147	-0.02648087845919054
0.004704905228720912	-0.03454811404539497	0.03322078351994627	-0.04567440881181054
-0.008136735729864052	-0.04930879305309665	0.02012727013357523	-0.03433871145075287
-0.01295456159746374	-0.04266251837534928	0.01229024001259774	0.001758237773699236
-0.009179388129953073	-0.01120364952782109	-0.003762666320271199	0.03155416025276322
0.0008394459931036034	0.01733433099325752	-0.004748487925362419	0.04055978941777787
-0.001717023120165766	0.03891773644589944	-0.02229436689966452	0.03700042698313587
-0.003607811695443756	0.04268371227345969	-0.02980270737311137	0.03701750975923937
0.002561224934066327	0.01759403923003395	-0.0106849036533139	0.03895557264415515
0.0101747066159073	0.007219172884659108	-0.004143840538651529	0.03904018960019153
0.007112651583095577	-0.01446895544167317	-0.01323668327799979	-0.01972440429070284
0.0136091550341242	-0.02860591385576697	-0.02401690203741813	-0.06654446683687021
0.009194983643940129	-0.03824983090595859	-0.02080554448445742	-0.0620017820907675
-0.001813109235674522	-0.02535541651330135	0.0004376579117770238	-0.04464686495143736
-0.007409614143140232	-0.005588237107981855	-0.008396888482438419	-0.02379968767681198
-0.008784646428003799	0.00827285118691427	-0.01836320749843109	0.0223794765607727
-0.002053476117962323	0.01573449333719002	-0.006710680470615856	0.09570062973260753
-0.0061964024643215	-0.002731615971248405	0.01188210772087548	0.03932921306422793
0.001654019019589384	-0.003612288398493121	0.0123550486761818	0.003787298624941478
0.004205677759514733	0.008990120907552773	-0.010334063015301	0.03775937871654775
0.01401556714850328	0.0562496295081801	-0.009479695535479086	0.03031230976710381
0.01154272066405934	0.03805230233860746	-0.01427916965657789	0.01272352085447915
0.006606398804882375	0.02857509209084746	-0.0205619632255963	0.01640801276774434
0.007275245947634245	0.04018999598874003	-0.02952327280968654	0.02777336452146505
-0.005331790921551834	0.03189393144136851	-0.04709798207925676	0.002835468373737036
-0.01818446354742179	0.009756043218544166	-0.0406327987664629	-0.03798540560851964
-0.02436647637882499	0.004677675785414794	-0.04123162247744631	0.009902635925952868
-0.01221284969619797	0.02261541020153473	-0.02611853266600947	0.02687607564782819
0.003340286877810962	0.02533387184856786	-0.009849832493777709	0.03515305557810765
0.01706823348452298	0.01398868040420404	0.07997240656906285	0.04320669825372705
0.01207953440756606	-0.01482307053862344	0.07804255837182399	0.02526009903543229
0.01080946356075695	-0.007118857074985149	0.04168893093789296	-0.001505932352434711
0.001743837875982877	-0.003801055765926223	0.0167017950363675	-0.04553909116913932
-0.005017987246291856	-0.006042854049703538	-0.007939512282623807	-0.04730883993213141
-0.006750151654961003	0.00855618386129191	-0.01749300937676117	-0.04366983059229219
0.01238484948463779	0.03506459591238348	-0.02994951805539911	-0.02561400385540238
0.01042980999159602	0.02538622540683238	-0.0300646609556332	-0.008555932959350846
0.003607606809327119	-0.01057776543940643	-0.02496976380738217	-0.009323314733253957
0.0006643429651030715	-0.02932890828388318	-0.02038032991660507	-0.02311613992706653
-0.0006069246393232454	-0.04583239357658136	-0.01206440905973812	-0.01600314685134449
6.425962677898308e-05	-0.03928230638497805	0.01979108199023623	-0.0001790668104582602
0.002889446131235902	-0.02771712785215567	0.03512583937518565	-0.01536239445699025
0.006753674402364617	-0.01275999293229239	0.05755439656451631	0.0125017497161497
0.006303558813674086	0.004436864979054722	0.01249292880252119	0.007128153796445436
0.004667835624207992	0.0005127065277659749	0.0352930568180187	0.03078796790820869
0.01014417408647318	0.008246108325506098	0.05836157377131573	0.001373522598886131
0.0119930592594759	0.01718474229690144	0.04107187119133129	-0.006935603123342215
0.009219877672135513	0.02016866819505137	0.02210225117068629	0.00059205420990363
-0.001277853511438348	-0.009246817060701391	-0.00572875287292992	-0.0146712217584051
-0.0006956110892004112	-0.01212917480370449	-0.02444420784389529	-0.00192701048048191
-0.004045376343208971	-0.02836523774143805	-0.02994264880465329	0.0009410649350868113
-0.008553128716891286	-0.03681626907568427	-0.0139967213057431	-0.004255792019867437
-0.009197643953030389	-0.02954660044514699	-0.001125846044248244	-0.01856798808916884
0.0008265870307932978	0.008938478019773946	0.02191812270433458	0.007591071728294382
-0.003649961794281537	0.01535273342231526	0.0147238101936492	0.02871251134247711
-0.007328226736625919	0.02767880958124482	-0.003615374783883379	0.04884893629128002
-0.008342150484569735	0.04274351914967429	-0.01908671010041497	0.02993960800518771
-0.01184573520277082	0.02904537596773407	-0.01455826789784465	0.07302207821460019
-0.01918903188580867	-0.006958884958699466	-0.02591489854872814	0.06119043332247173
-0.02640038062830887	-0.02072599545252736	-0.04623558608867027	0.01792593025612585
-0.02090806688674517	-0.02497804894398031	-0.06359366406837223	-0.01811366695333712
-0.01722382224578181	-0.02457751899729578	-0.04645395713978531	-0.05937354626458183
-0.01165180217236972	-0.008130111649143165	-0.03075323021564919	-0.07700521134601752
-0.004770780392628074	-0.01447343019078015	0.000627034291684367	-0.08664348815462815
0.002158000130416963	-0.01238462120320419	0.01123338560597045	-0.0796233311665661
0.01255688094093946	-0.01541626176170818	0.02294955591133415	-0.06099248740019145
0.01633293517354832	-0.04059979215284043	0.02615928193290054	-0.06627638945777806
0.01205096512313789	-0.05425468660575089	0.034042581426459	-0.05769209220420767
0.007592516922013915	-0.04604633259214911	0.0236334660344153	0.03216972900657576
-0.00626729434017649	-0.01211866987516259	0.02220695641353041	0.03893525542455289
-0.003196385823589863	0.03716842837917998	0.0127831351399659	-0.001961996050841833
0.008437609180859474	0.07560173788628391	-0.007887871039593635	-0.01620198468719056
0.02194841888158685	0.0709430642588753	-0.01020558090658318	0.03147089165542256
0.02329841682908759	0.07908051324369646	-0.01087009244563437	0.04512351585090824
0.02656833118483624	0.06124490760941547	1.012428124351426e-05	0.03988847307207901
0.01771210505080752	0.0320569866515012	0.01085097309576935	0.04371795341305932
0.002861382100142778	0.0202780406437796	0.02198145304333112	0.03126020794076066
-0.01221563301296094	0.01626468334020384	-0.003411971076813312	0.02549828623595977
-0.0200029788416207	0.002930150767011858	-0.01706692357638921	0.06619449969270372
-0.01318640297202677	-0.006515420884431068	-0.006630233743753152	0.05256121786000865
-0.008488089293493629	-0.02781704032870911	0.003426614390409388	0.00950977768743104
-0.01064979114803792	-0.04519115371723922	-0.01858228868147756	0.001780922233146284
-0.006386587496277119	-0.0468482388218199	0.004532348586165688	0.02418076284079739
-0.001452890946926012	-0.04754749329856527	0.006699434334528069	0.04359805105139418
0.007372888487878169	-0.02683658891207003	0.02196592650882382	0.01859136628458508
0.01431935597156025	-0.009597032864768805	0.003387824822422072	-0.002519826023423043
0.02061769612274308	0.02453047880691291	0.009471973364707686	-0.05139479077076925
0.01874781594627498	0.04539406533870501	0.0239763827439058	-0.0755744706527912
0.004559707594966531	0.0390463112838274	0.01073290779858332	-0.06112367761752867
-0.006274908366549675	0.01853606313161535	-0.003109731506647344	0.009654900057426016
-0.0107681248377468	-0.003086675457316625	-0.007368677533185187	0.06615728575568403
-0.007587404252364567	-0.009600438642223107	-0.02003662381065444	0.02221090266266672
-0.007458899949314941	-0.01988549226111503	0.007576836553586105	-0.009972301610111639
-0.00479773791690382	-0.02432319698591568	0.02063421321675244	-0.003215850519436329
-0.001935425826960689	-0.02577110414834888	0.01126673427282154	-0.0145228979055372
-0.001568130822598257	-0.02487601744172973	0.009842107869000458	-0.01411569619252156
0.001232122189700023	-0.03334766543175407	0.0009864459682980792	-0.03055418000928489
0.004285848569751839	-0.03052795429961433	-0.01774866331638378	-0.05355561188743235
0.007375836210421996	-0.02478876782089746	-0.02619766603282606	-0.07190757801907641
0.004163549048896671	-0.04170446837959899	-0.02026824482214288	-0.06229855140873908
0.00645864868178598	-0.03076747319909521	-0.007557019735551239	-0.03924686561048962
-0.00595202486673453	0.002994801805671566	-0.0017191280922547	0.007868469578070105
-0.007661268636442103	0.0359840393140205	0.01167265800665515	0.03118198547658475
-0.003701241284073238	0.0472760044450905	0.004668905446632758	0.03953909550008568
-0.00596426140357894	0.03569672653916946	-0.01440302697987346	0.03297075033325897
-0.001419348717964064	0.03847937670540561	-0.0005465228306010967	0.0526496008676362
-0.00446173917261503	0.05787787645090054	0.004850891576328575	0.04466860828542097
-0.006349621161667141	0.05753677048858814	-0.01263560784236699	0.02885599842602382
-0.01154601171327782	0.02519408564443694	-0.01978214425312996	-0.008376609263377932
-0.01529490601046971	-0.008278624668261811	-0.03616400788442865	-0.03733239112328417
-0.01502899738216544	-0.01495313962564229	-0.0161679575764411	-0.05679922603087988
-0.01428709449233977	-0.01231980780652034	0.01429407691119429	-0.06101970090888445
-0.01311412901942243	-0.01417043159032799	-0.002792364989118325	-0.03932494922520095
-0.0001863546429929714	-0.02584936791869025	-0.02261991306127508	0.002594169607710931
-0.003253676220536732	-0.04322270982962905	-0.0005764576368219884	0.0002387107050129372
0.003197624975675967	-0.05350007167841715	0.00330879782930077	0.01976034413051725
0.01118119484792287	-0.05669778506561061	0.004953422829525448	0.02270035746405054
-0.002459518086353096	-0.05696198669533126	-0.005603162207996537	-0.007025866440439585
-0.00518447804778805	-0.04335918604307674	-0.01456367363583737	-0.03174679628461771
-0.006085992622342848	-0.003422693746931302	0.01474287409771806	0.04032275698028293
0.001294796751220103	0.0351673025836496	0.02294806777372437	0.06216268916193881
0.009253737436030788	0.03692557671429527	0.008223162923857155	0.04318036194259452
0.01003755192292146	0.04670480413953954	0.02620081852700801	0.0606455197436647
0.003188445366219524	0.0569275104326139	0.001240639798143489	-0.01507206608390418
0.001346675641715497	0.04664739133232811	-0.0257269699400584	-0.06260886664092433
0.008328824625707899	0.03471560922432117	0.01388569789880602	-0.05366583195913608
0.01059056380479142	0.02099770517510063	0.03082861630025183	-0.02614413464951152
0.006871298073759522	0.0008915392620918135	0.05152202049932318	0.009501535911905907
-0.00118799819653046	-0.004631948126901369	0.04465910034633821	0.01155067190814765
0.003990712951479102	-0.01057111229536029	0.04078110928570212	0.01098956508709841
0.005945976109688484	-0.02368823945923597	0.01924198153987874	0.001487862166867471
-0.002978455207916625	-0.0320111031825556	0.002883320195905837	-0.006745054954604957
-0.0001479460255053662	-0.03339321265170832	0.01355716506021288	0.009823088731268191
-0.0009075014888718806	-0.03515313143079124	0.01675159443401641	0.01255616976192255
0.00829141545324439	-0.02466393722019806	-0.001992956366129602	-0.00287178819843
0.008397882621858336	0.01262434429065854	-0.006282326941730136	5.985804119685898e-05
0.00933396300125218	0.02472816218181564	0.01090713848807437	0.01036714646297876
0.009441526709070974	0.01689429537681637	-0.01531927851019409	0.008126429026568131
0.004697584060363219	0.01487047544489418	-0.02762694190503964	0.002380958204121212
-0.004416058000871508	0.006310031787671995	-0.0490819901358637	0.01179543405815813
-0.004072994105982377	0.007593262044488981	-0.04582498499784052	0.01621825154054771
-0.0004236260893199705	0.001002425203824966	-0.05933023258560419	0.04039934747810466
0.007342732435812439	0.01612113825725366	-0.06367566179789548	0.02967921224319247
0.0003815586832438832	0.00789578862072669	0.01643581914500399	0.01824118615811044
-0.001068807206727997	-0.004032268668742365	0.0594682635305331	0.002863015503760099
-0.001521195100751165	0.002168594293118228	0.07803112986724357	-0.003624533475659795
-0.003200192339784965	-0.003071647927898909	0.04641517532993444	-0.0117172787732775
-0.002865524810092347	-0.01870005885101397	0.0006234957972752407	-0.02126511210538807
-0.002948563040131642	-0.006414515410514572	-0.01701201586566149	-0.01496642177003329
0.002570601431919179	0.02280102443581793	-0.02813155360098691	-0.009010729672477114
0.003831211149414205	0.03566366707935673	-0.03032962767735243	-0.01555530622139085
0.006632776730504529	0.02986220331932291	0.01975103405351442	0.01465790097146039
0.009609562285244141	0.02027586764167981	0.03796066242739958	0.01851143214311053
0.0001662702925173049	0.01172401767547126	-0.01494481636359882	0.008660464551018942
-0.0005502727915330515	0.01273436953739909	-0.02293505355363556	0.004167816735211377
-0.0008542508979350739	0.003118395187950524	-0.008587614354579148	-0.003167059480030482
-0.005006505731345861	-0.01202497788429442	-0.01075515839246405	-0.02120369785187886
-0.001486781781201168	-0.01715685031751056	0.001784421905761153	-0.03789131183706509
-0.005254704081918379	-0.02867671134610222	0.0283884050257012	-0.03032993120138897
-0.007357167727021685	-0.02396750562842684	0.003951106743184223	-0.0206829287665724
-0.009398150200942722	-0.01241235706059433	-0.020745119702735	0.04781370702058062
-0.008254770886636469	-0.01694256356731242	-0.01656084927121058	0.03738245549117893
0.003636479676183746	-0.01921378823280778	-0.04279698352063027	0.03830908697071661
0.02162323820507745	-0.009872391094450865	-0.03610950338974406	0.04848000355686599
0.02613819353805681	-0.008810122610043179	-0.001127693071503319	0.0462950813116974
0.02263618828422458	-0.005363520723048829	0.03979673278776013	0.0362818178570856
0.01170718709515244	-0.01155176764779759	0.01313817475047024	0.007271727712862329
-0.001716405990888022	-0.0318487848363613	-0.004599512176550454	-0.03083998846116908
-0.005607448105070212	-0.03605897696414196	-0.009767786588762742	-0.05724174776604379
-0.007058788190465452	-0.04437735898606501	-0.02277297058115377	-0.0597227533754949
-0.009495934435248949	-0.0424336516376158	-0.03361757164722908	-0.01064229324406906
-0.009904990937057248	-0.03044524258950055	-0.02038058878062422	0.034021126076152
-0.007498842063343007	-0.01708930230173845	-0.01606248234385508	0.04434160698591214
0.002158753880037297	0.03308626319590809	-0.004561196538776117	0.001436651413132379
0.003286881596328436	0.0740720440187322	0.01551518688204904	-0.03956061254288686
0.0006038322930106543	0.1109239797281222	-0.02662942026129228	-0.02108605222565305
-0.0007575050950493919	0.08479547399462035	-0.01157919688841275	-0.02066526207350458
-0.008189517225748066	0.04548833182139508	0.02762267531769487	-0.01048325973810984
-0.01109777506940004	0.03228940751611094	-0.01009045615379815	-0.03405572784437023
-0.01201702839565014	0.02656653991270478	-0.05801068962774721	-0.07854599694995459
-0.006543001766863479	0.00903716676817099	-0.04744660213446504	-0.105418760034255
-0.009526930437863654	-0.00303752975681372	-0.03079110146644881	-0.08570989670629231
-0.009451943071794349	-0.01083392399256686	-0.01611388146582632	-0.03446406343392271
-0.01282097456548185	-0.03203583673890315	0.003562063661229511	0.0005327380999353695
-0.01806618489103404	-0.03732548945009345	0.007879150821953654	0.01090512558584807
-0.00931773916382618	-0.02052928404904271	0.03140283056988358	0.01962433435362854
-0.00526725718270514	-0.002078907636368742	0.02772712657364685	-0.001523501937973257
-0.00209353255453124	-0.001234179225243078	0.01363477205440974	-0.01074051581259164
0.003447627486052808	0.003555338207864248	0.006597769648690287	-0.013578386998369
-4.345088324991113e-05	0.009703961402153847	0.02285042153680935	0.01058375446137417
0.003373727596770691	0.005824240636337936	0.02078485881533436	0.04998516615196817
0.008362737586307947	0.01562737014372326	0.0008408374535177926	0.06900113619420455
0.00914993054869531	0.01062854116424124	0.002037637539066472	0.02708096109380236
0.01341025762011446	0.002258906618732339	0.0124917034903158	0.02268442852024711
0.0184550792731133	0.0008341492630569723	0.0179281872892798	0.02333105386438299
0.01407223981496904	-0.006476540540280341	0.03125866258404824	0.02050829058163892
0.004396229324650701	-0.0174629008797231	0.04171879741385177	0.01102497713920412
0.002792037885339337	-0.00852756411034033	0.03163749724371501	0.01269143510063645
0.00859820869030958	-0.007414261897409656	0.03348685087163486	0.02076169953282963
0.002927023717477508	-0.02200154767737466	0.04296966436378284	0.05264722120570265
-0.009739931346450133	-0.03699410092459573	0.02319215477438853	0.03965776729888645
-0.003376697362010073	-0.03701868452956306	-0.02605908020174831	0.01004534364339722
-0.008365384665538574	-0.04151114832535806	-0.03168838443939576	-0.0002275774674346526
-0.004114454046926948	-0.02441830077031531	-0.02508286442975781	0.003687894019583488
-0.0007346245772409357	0.002207788619208318	-0.0100363309838948	-0.02673357772116575
-0.01174610765554975	0.001292461777422596	0.02119987120441415	-0.02568646307786214
-0.008650302875509421	0.007226773498051164	0.0493106537791741	-0.02473201481023276
0.003483333798942651	0.007004348467336188	0.02590279690905213	-0.03026520355975166
0.007907527867085609	-0.005868425536599895	0.01662898255887568	-0.02563684532384084
-0.0008761503299239439	-0.01700650085878044	0.009400056289696019	0.04224064124881546
-0.007221365122406206	-0.02715689901248865	0.01782423616259533	0.1117811140440971
-0.01056923579080315	-0.004285168104006879	0.02126147896379333	0.0418887316038646
-0.004941896678143909	-0.003123295718202652	0.01428293085989545	0.02436359061558514
-0.0008886843723042846	-0.001788239146494208	0.0157410397509435	0.04415196745584826
-0.0003400152516774919	0.01426540758643859	-0.0010092338752031	0.001866847326239308
-0.003914750987759	0.04304502270649561	-0.004540262577226352	-0.01722389368324432
-0.000909183423809524	0.06848432922188898	-0.01180442592128466	-0.02109319949330223
-0.003093781660573297	0.03242970100053461	-0.03597958949944595	-0.02453087650211373
-0.00204959460399752	0.01020384701054189	-0.04574477052756645	-0.02871656767414359
0.003317729333885598	-0.009639315688960093	-0.03079681465273508	-0.02189090448417104
0.001284604858214258	-0.02677435479415606	-0.05208411926776264	-0.02004577265537676
-0.0003137537601433424	-0.02094981217014635	-0.08278242738407234	-0.02333263375395462
0.004584732573882324	-0.01334061965294485	0.003891425047601556	-0.02412038774304046
0.008954695026297014	-0.003802183580555238	0.04534338492146513	-0.02006251602192961
0.006649981754291619	-0.0008649751734369736	0.04484832711189878	-0.02973019275529512
2.183751214665916e-05	-0.00768301215050033	0.04339306633688333	-0.05458797405198983
0.000188513080888581	2.806557491347585e-06	0.01946386797443749	-0.0533411823655868
-0.002037981012422325	0.003840340199014959	0.001804910671305962	-0.01413722439529715
-0.0007483997661714639	0.00195983104817481	0.004082496507708206	0.01662860055004603
-0.00538747216977969	-0.002765096228644459	0.007012704447112291	0.1008904108549074
-0.006435351791363732	0.01111643147394318	-0.006012578613636958	0.102991245548819
0.005270986194506968	0.04586539641225131	-0.01005826542915224	-0.005729576245310179
0.008864172948967967	0.0373227390204371	-0.0004963529390051551	-0.04011604569453438
0.005587850421511194	0.020970840393176	0.01102397988639205	-0.04512985556943653
0.0003030702410226661	0.001961525400530385	-0.006684490704772961	-0.05376865225040741
-0.01493140092117291	-0.01319090454924154	-0.008196373275492492	-0.03261979535016345
-0.01737234454086559	-0.01631691499720574	-0.02110073907233222	-0.02359308923776342
-0.008414143042362255	-0.01176183124340514	-0.03515210105252634	0.00303982459652505
0.0006492276475901397	-0.004063309629384663	-0.03967354262768859	0.05259477890405017
0.01378741566800677	-0.008735720498541516	-0.02629856191913477	0.02079573778138178
0.01481183868891438	-0.0238627122699088	-0.01181283084061383	0.004381089067680467
-0.0009568803623498022	-0.03239167349401787	-0.01541460780026433	0.001347833940912071
-0.001349113934214398	-0.0359102617556417	-0.04344590733440572	-0.0327316563445595
-0.003166746127144586	-0.03182165442929267	-0.05428497917575149	-0.03217019231861418
-0.00377770769603547	-0.02204940035258387	-0.03338692349746331	-0.0220019381153896
