0.00711554288699191	0.002251213367673599	0.008430110686679787	0.003328632247604604
0.006812229957565199	0.0151922775499686	0.003717479111659282	0.006020791080347979
0.0106224982286168	0.01205445120374391	-0.003565772250797557	-0.001052050899042572
0.01286281524178892	0.01161689439624817	-2.12096043248572e-05	-0.006407464965156554
0.01068145105145023	0.01437538231733321	-0.003250483867131461	-0.002635110066789741
0.009665578622277985	0.01067970079912135	-0.01285699657897079	-0.004970456931944945
0.009808259597304105	0.003344869104990926	-0.01063695246350252	-0.001764445903073542
0.004609418622241813	0.003067000107484761	-0.01136650934401128	-0.001995205982164207
-0.003558329570733389	-0.00604210284790695	-0.01184582441024577	-0.004840141357357219
-0.007014980678222998	-0.0170562157779223	-0.009871685212864002	-0.005932080850838481
-0.005879975573788508	-0.01285246253846709	-0.005418229214292567	-0.003374079994114586
-0.01340499867106417	-0.007727797610330829	0.001560094934356752	0.001710710187728099
-0.004322871715828911	-0.00497379554387525	0.002878236847795269	0.007239556857782724
-0.003617338946024123	-0.01013087451263492	0.000523459815225142	0.006124414408365109
-0.002325278449067619	-0.003193787970466778	0.006188377207549603	0.009317923860030972
0.0004563875872867056	6.040150314766605e-05	0.01161444467202665	0.005735115561867237
-0.001983254682007277	0.007190741629178219	0.009786973321903739	0.003075159358029768
-0.001476686321511653	0.01691808653009986	0.00818736082854443	0.00145170434209065
-0.001171322619935177	0.01358643688600429	0.002949045646349651	4.820389945123733e-05
0.004166365518825795	0.01704156341793728	0.002850388559892682	-0.004406790379135737
0.007014739217945423	0.01657748009037788	-0.001104673485595743	-0.004888020434460988
0.008872711409385231	0.01665701758619743	-0.0001398217080213076	-0.005101453397306114
0.01596211672177192	0.0169941835908097	-0.003203996198950076	-0.005678915181200112
0.002568676193272956	0.007163410622892563	-0.005233768888253074	-0.005735663579036765
-0.0006013086998397587	0.004141290162074962	-0.007014453349522391	-0.004962228847056352
-0.00824658029743915	0.01386411319692107	-0.01448676979130857	-0.008448518371396421
-0.006993265893367027	0.003431844663024155	-0.01256715008662436	-0.004818275869100102
-0.006049237924930552	-0.01034236541134113	-0.006389371518935052	-0.0003699011836490369
-0.005391090621567031	-0.007380834689523511	-5.691163527432125e-05	0.001833034390538637
-0.003661383091195949	-0.006159950126086357	0.00246093454432452	0.001903607636597229
0.002449457795643811	0.0008130512093093788	0.009378261826152152	0.007363960534238027
0.00334032084240087	0.003894511308910299	0.01223345221708818	0.006726871694810836
0.007295421765356529	0.003378737881330606	0.01415751445328463	0.002598560232447618
0.005669219231015149	0.003550338838051121	0.009496463160832988	0.002985720658822726
0.006247883966734773	-0.0005571018232923492	0.01085811512576199	0.002275492673700025
0.006062173174560951	0.0001968822922040479	0.002124057934184713	-0.001956174694979793
0.004845341604795892	0.003392634397300749	0.0004798610768369382	-0.0005270409204302252
0.005773976152982405	0.006369234922460901	-0.003614031372801187	0.003122169555703705
0.0004216135915086486	0.003744785875505694	-0.001640048091700054	-0.003702204160583887
-0.003828710514113306	0.001222584095047883	-0.003642068356986533	-0.002533021857398274
-0.008131346880403749	0.001103323139377332	-0.005720925065091582	-0.004525288172606829
-0.005622732121479552	-0.003584724373921669	-0.008065274135141614	-0.0009873120395397347
-0.007379250497163729	-0.008416365878541929	-0.0107765300452806	-0.004586142497056193
-0.003364989065504222	-0.01147255819260884	-0.01314714787095959	-0.00367415798624099
-0.006870933867214328	-0.008704310300810579	-0.008351987441837672	-0.002055279418089183
0.001331305287555	-0.006596784220142841	-0.003927871638283962	0.0001972652283494763
0.003228481172335537	-0.007974375009348805	-0.001079093515097405	0.0004809656906752717
0.002968952703245783	-0.01240862986580125	0.002666207756643512	0.004700472269090401
0.008837923227977299	-0.008945395071092913	0.004799433628262169	0.001861361882409699
0.005831110120709943	-0.002666134914587245	0.0045290899295898	0.001632869521168521
0.005088437200246788	-0.00550589027835505	0.009370906471865208	0.003435396551702958
0.002530856879878914	-0.009833176981884678	0.005733540259443669	0.003356261252562053
0.007815321513829156	-0.005655619077936035	0.002294983382845327	-0.002435213875775305
0.007677328874760929	0.005462508914242254	0.001097021822992377	-0.001115509958999828
0.0103367291562154	0.01641534208463508	-7.710891407971976e-05	-0.004043063017781865
0.004479284844436491	0.01785894185006851	-0.003752487471635998	0.001258083159459284
-0.002476721480100393	0.01128559347685643	-0.008586597319750672	0.0006404124499196399
-0.008899120530359643	-0.006739548712566696	-0.007670860736856367	-0.003537911768571795
-0.01173768486023916	-0.005710751843097365	-0.001819670799016499	-0.003044688603151659
-0.01778678457294392	-0.006238014629888778	-0.008195409503804152	-0.004144569067601052
-0.02081210703512846	-0.006720974832536271	-0.008262066119377413	-0.005512279928135175
-0.01804624996019009	-0.008316730176459432	-0.004056627479251363	0.002237182557060107
-0.01317294507749803	-0.01667883837708653	-0.003612308348299847	0.0006149061086112718
-0.01037045378157018	-0.0141965879081043	0.000709330868185953	0.002306538700142438
-0.002791419894703788	-0.01061466825694959	0.00502578423297145	0.009003765224224969
0.0001761751760967531	-0.003442830862377853	0.009334394287039895	0.01057783694239894
0.003236739040318367	-0.005437260376265381	0.008618280981820136	0.007193062714353213
0.002191075147311755	0.001942884385616118	0.01083908650992369	0.009153783832250488
0.006257527415603307	-0.002945053785641878	0.009465020165619889	0.00344712587340646
0.004959064987490898	0.001654765498301999	0.006301351041053683	-0.00118060430675899
0.01011855725976098	0.004688064586406411	0.001174267769062016	0.0009692028502424265
0.008232393457537379	0.004649645391661883	0.0001903289416946944	0.001291627770653762
0.01533565807165141	0.01132841091110103	-0.002469850078967001	-0.003253433564598603
0.009481452016557711	0.01245791466897093	-0.003626291514495944	6.719755050875296e-05
0.002510741478132346	0.01039397048764765	-0.002922414194442178	-0.004885175274645926
-0.001782301611139885	0.008513049210284972	-0.004750592194484794	-0.009345635436764881
-0.007343145278437826	0.001388724745555327	-0.0057269108993978	-0.004495531093506646
-0.008830894312299517	-0.002815792204299465	-0.006590363896255568	-0.007587931839476131
-0.00934872990881371	-0.006055232481972771	-0.003338237265091386	-0.002528141116811975
-0.00432178041703137	-0.005809717106654573	-0.002493602649664677	0.0008818316425901671
-0.0009020762740605844	-0.01189499828494247	0.002046719005023884	0.002729596386904561
0.0002277945432423	-0.008733017825382088	0.005607499112952895	0.008697506482442998
-0.0001378749532380877	-0.005331023048609031	0.004290000566140293	0.007549834841844656
0.005133045145800457	-0.004346648739947757	0.007726140280312438	0.00757229359387506
0.002929565816889756	-0.007458188818609855	0.01678618892975772	0.01096630499008402
0.002595356032726889	-0.007427371468964739	0.0138933987213538	0.001678985608251756
0.005787658844029125	0.002434724694752804	0.01422226455588992	0.002005775535398659
0.009304073302049279	0.006783939763272029	0.005899355144068382	-0.007845010999960007
0.01402631981340137	0.01041357844589874	0.003235175203067013	-0.007291848183530054
0.008797230986960928	0.01332974287783581	0.0001845378058902013	-0.009070272354529689
0.004035293834531616	0.02074412150683517	-0.002431169443771807	-0.004221716383282423
-0.001195489690393743	0.02621714311631353	-0.004376035651536591	-0.005560719471449304
-0.005298473768988843	0.01472813587028769	-0.006744807746882997	-0.006479252157136794
-0.01023523223356236	0.004535912166438011	-0.0112734356288031	-0.009989371106281621
-0.009528266312245383	-0.007510976605224845	-0.01494821825892	-0.007363914525511317
-0.0093719603420172	-0.01221273353109073	-0.008631337516511527	-0.003268321854089432
-0.01017719510515947	-0.01371830109844877	-0.00744334614417316	0.00032750659516496
-0.004393934477493914	-0.006593965036179019	-0.005906810303729676	0.004119576665955488
-0.0005486682684079617	-0.001025116952737153	0.007034738832880689	0.004090484512020294
0.002549198770872059	0.004722596102458383	0.005188828354669932	0.007993692466516711
0.0007842848474387452	0.008983581329052177	0.004256063363300274	0.009095625756584284
0.007385006583215848	0.015645322576717	0.009044118084189602	0.006892160598542401
0.005741707984033069	0.02729278389656764	0.008239563076290481	0.002875035870365448
0.003496244886789914	0.0249741338756507	0.003177057356160258	0.0003075044908778157
0.007247314124856335	0.01792550952907808	-0.001411105661964566	-0.001038272141398557
0.01537394263069176	0.01797455789874989	-0.00268323626203221	0.0004289359889908742
0.0122284915952554	0.01217274102147316	-0.006894647759904691	-0.003941439300078293
0.00585128561414878	0.001147382020634958	-0.000363197615004529	-0.003795025855530144
0.003010103248493418	-0.008910697910719412	-0.004695962122475864	-0.005984937039525057
-0.001020013356390072	-0.01338187222969624	-0.004652163882803689	-0.005504767692419786
-0.006346771199416507	-0.01973929756640749	-0.01026935675020903	-0.001198276871373355
-0.01449151728777414	-0.02289134016728228	-0.007688927587550315	-0.0009903419333392111
-0.01502402704795272	-0.02899783691660459	-0.01425204002247387	0.001155020131367125
-0.01490887282789048	-0.02009300983679721	-0.01225916631935068	0.003319621228936001
-0.008728218547173107	-0.001236901257540185	-0.00932655808991222	0.004175344194137974
-0.005582368319571976	0.01318503248662745	0.004765761501150233	0.002683736977059048
-0.005969074651888206	-0.001545102513666498	0.01146607276527322	0.005911578662732763
-0.002359566850043059	-0.0069290134515546	0.01194536470944413	0.004311400045623078
0.0003285085233337728	-0.00530200238607314	0.01458583503794551	0.003012517133103109
0.006897237172493431	0.002601909797709836	0.009852789182600416	0.004496654427226667
0.006438794580716013	0.002241971644796348	0.006821128787233979	-0.001269279304397531
0.007055423165372865	0.004102712515930712	0.005506262757095856	-0.001341055476022543
0.01370672504724404	0.01276611944072381	0.002916954663958801	-0.003646299464776276
0.008153532544711005	0.01958310622062979	-0.001542867401097443	-0.005052196068852258
0.002657479400889772	0.02797186290768237	-0.006859544972573479	-0.001063622336018694
-0.0009409069645963738	0.02346422453962706	-0.004866461046360938	-0.00761722912721746
-0.003343658443042755	-0.001163381373714892	-0.008477780216557309	-0.007499933426013661
-0.006548793774554439	-0.01124350170019012	-0.006357706740251562	-0.001769173311684712
-0.007052608352302453	-0.01822254416298983	-0.007756463320123188	-0.00148359899419831
-0.005920606917278552	-0.02695273528777481	-0.006150609986379054	0.0005308128851671044
-0.002713244460810256	-0.02956688519401819	-0.001508937928897534	0.002254366245092114
-0.001777890439523184	-0.02352901938595888	0.000564849692392513	0.009521683524571185
0.0001440870783281855	-0.01668566412289052	0.009153341345846546	0.01178770927893417
0.001119270180395991	-0.01978925050183925	0.01044873203541197	0.005784502105493486
-0.0007164011175183009	-0.0172035994231816	0.01281181742608625	0.005424477659676574
-0.002019199476596606	-0.01334272018486288	0.008270617130694045	0.004393037288236611
0.002168192647250071	-0.009530986873683207	0.004578792903758142	-0.0009344360599012999
0.0006255763169987718	-0.004537432523922414	0.0008331532864247688	0.00207307477558082
0.009927276518445582	0.00513837830727756	-0.004138741937120683	-0.005078801251403821
0.008368770240751736	0.01053297696233029	-0.004633217992126598	-0.007327121743563146
0.005393675424202342	0.01145688147531489	-0.005580324791483173	-0.004542201047807764
0.002501556688548385	0.00887364626682772	-0.003555601413085148	-0.004682878305138906
-0.002490208188147735	0.005867033758436533	-0.004814927514695233	-0.003338112857875669
-0.009908108036922998	-0.001404986704593979	-0.006027858494166241	-0.005501126817438487
-0.01253783351671915	-0.007054499809913114	-0.00517769063093202	-0.005253878122536354
-0.01298888156973598	-0.01134021463313081	-0.007665412828348933	-0.001890588405444034
-0.01425329670896452	-0.00322675502657407	0.0008142899020607044	-0.002057375334395468
-0.007221175845760208	-0.002924122524806561	-0.00606099283877084	-0.001157012879047334
-0.006954042180383656	-0.002855200440957823	0.001054049558194732	0.004419009320245798
0.005073153893452254	0.006312407355074118	0.005901143952923616	0.009866552344582839
0.003856572820227178	0.01174391750163543	0.009671671856397104	0.007678692325916036
0.008098741626328423	0.0113632695884631	0.01092150671559724	0.0048038018018991
0.0123655032271959	0.01575031529865246	0.008980173798618277	0.005524328728851545
0.01150973381470576	0.02026200477722042	0.009870641070748396	0.004408645492990441
0.01123596031822947	0.01696103845169049	0.000675279686905772	-0.001215311722509513
0.01147680120880852	0.01737469694701281	0.001464269774374161	2.607787431468551e-05
0.01546518098836182	0.01900711788495164	-0.003634616510617289	-0.004674690391115718
0.01697150273432643	0.01616163468061179	-0.001060927476462837	-0.006745358902228512
0.008618903860592499	0.004500254796221999	-0.004041959075841853	-0.004487338518361132
0.005319960538876507	-0.006296336565696584	-0.0082170190159392	-0.006481439665839375
-0.002203729846258123	-0.01618530191973844	-0.009109780316734152	-0.009185309519144225
-0.006646572800737394	-0.01461161257562119	-0.009129475449450674	-0.009432603477507327
-0.01091989606863822	-0.01644593216939988	-0.007822162552302581	-0.004347369857642999
-0.01003590882516727	-0.02010410176443306	-0.006908776162693296	-0.0007087709497614538
-0.008189300452971291	-0.02193876792892131	-0.007115672406317815	0.004900837943331224
-0.006951652866985267	-0.01017719532711082	0.002172040993570945	0.007473072917138963
0.0001313449024073351	-0.002296331706322983	0.008083134281375498	0.01100751851066077
-0.0001304197980991284	-0.0009319217068885211	0.01210112914789016	0.008204148460705569
-0.0001835879389079574	-0.0007285959288626107	0.008390819428845861	0.0002391689182459296
0.003520909139549779	0.008648954433874732	0.003322375951700786	0.0003874394430426079
0.005143205484856642	0.01373758472434383	0.0009867923182037208	-0.003135652744505407
0.005181245995779289	0.02773436070156716	-0.002805323942902385	-0.004863081546130171
0.006201457673128129	0.0302862654517882	-0.003458757942395121	-0.003022682442787102
0.01022855741057634	0.02726516753342651	-0.001822965650686448	-0.003939017612607477
0.01136297936832391	0.0213002222565774	-0.003137444951320287	-0.004025691305363366
0.006485574740849937	0.01715211156643746	-0.00436547241428739	0.001356181734255113
0.004387725242532979	0.01066532685123762	0.003497076848296208	-0.001070331530874871
0.003366861593754507	0.00264456547948394	0.002442513004199776	0.003062468432425477
-0.009337435940596831	-0.01208919960057826	0.006395104805529012	0.005474496008187342
-0.01346051245663241	-0.02035286049430212	0.008627646658217617	0.01035750803036297
-0.01435043460359443	-0.02490254794099164	0.01178616769356844	0.009224708769565465
-0.01782550545924505	-0.02230494236119901	0.01075627036424774	0.008845372970731995
-0.012744538560855	-0.02307182363603256	0.01468484363825698	0.004531728166529682
-0.008960943048171591	-0.01433251234656454	0.008138252126819323	0.0003621700084174036
-0.005166962615146959	-0.00938071828933811	-0.0014591849629896	-0.001038884961014317
-0.002200458259715098	-0.004768853976874265	-0.008018172560343295	-0.004844382613520201
-0.003021015689690192	0.00495468949618866	-0.007229827387435354	-0.00385729016460986
-0.008663147358658535	0.01124029324994731	-0.008669018926938225	-0.005953409851730401
-0.002023076229369369	0.01339867358649001	-0.008921890235310675	-0.002098883984567521
0.001264959892509422	0.01197721700072029	-0.009106763178837043	-0.003426027331101768
0.00843282650911626	0.01247499212341032	-0.009906902887389924	-0.003592773873034277
0.0107241713877858	0.006675804046403745	-0.01339950446913918	-0.007298890723790177
0.006070812485235585	0.0002984011317967905	-0.01122393731095844	-0.002051022215030013
0.002394106496647674	-0.004260704953286078	-0.01056006106442197	-0.00137369182894451
-0.009099271145769869	-0.009053056440766797	0.0005423684910459225	0.001477668328140919
-0.006748024868024638	-0.01088677988394005	0.009659891804452285	0.0029212541529076
-0.009334510868480063	-0.01266908243253989	0.01451564119558156	0.007168620386077247
-0.004158896482237991	-0.01568399577802671	0.01713386753193777	0.00441544626296572
-0.003339279846795535	-0.0137889875048377	0.01484537580646502	0.00311302519150565
-0.003095316584415975	-0.005983412900413115	0.004626106344463147	0.0005823674265137123
-0.002657033423057689	0.02034627608242143	0.005895974131398932	-0.001718580982360351
-0.001517702191622052	0.02062501343901231	4.499600807498594e-05	-0.004231956653973444
0.002375491707627369	0.006959573808230424	-0.001342083156730929	-0.004922839210299998
0.005178822708974509	0.0059124361077633	-0.002069517810127894	-0.006549469894843939
0.006262945518200833	0.006925658643807176	-0.006796327404073888	-0.004210216104384875
0.005233353393165887	0.004574762460348651	-0.007939047536783816	-0.006055963421347382
0.003956400524754423	-0.0004670278947384954	-0.008957130255100088	-0.00871308476016406
0.008313843071205262	0.001358709187231816	-0.01160724434200022	-0.007857867321844812
0.007115992183623021	-0.001384559128106653	-0.009791302559088246	-0.001280994013055227
0.002921674720156938	-0.004797469422355254	-0.009965962012511546	-0.002016549116026372
0.0001157990062851251	-0.005869670814280787	-0.003334585499928276	0.003914575710632381
-0.003939448729326376	-0.01867180638866212	-0.00172780899568015	0.002901815805447814
-0.009080418214784879	-0.01822971690006877	0.005564670694161947	0.01025928253101345
-0.0115596643208235	-0.02720275719577457	0.0115588422338665	0.009397593920468463
-0.009536313518584642	-0.02571199265077493	0.01525426094840266	0.008652088773668336
-0.005629296155241365	-0.02332045491425481	0.009218756427131096	0.003559064387560606
-0.008728461361955122	-0.01705342987586047	0.005913779507121231	0.003509897364529675
-0.00576207658753225	-0.009404743851403826	0.001406727390785314	-0.001417724521915617
-0.00332682812694529	-0.006463003327308449	-0.0001228138722980611	-0.001651379517345655
0.004209221685141001	-0.002820321818155778	-0.002895362423604248	-0.0003854043135080654
0.004861570675998617	0.008868224901686542	-0.004595559863902548	0.000563340862289733
0.003181981766042564	0.01308211050783911	-0.002407955310643842	-0.001691202599284964
0.006222790005592191	0.007115842538999824	-0.004361847896867164	0.0008394133730913584
0.01033688315840564	0.01089126865166558	-0.008521494747233809	-0.001252724724284699
0.01576496140709719	0.0115560689215016	-0.01204847679913612	-0.01085325317595954
0.01214226136665133	0.0126381505373866	-0.01507964373244403	-0.00378227485973267
0.009784841011418409	0.01641180977169341	-0.009798024445735997	-0.004196645404713957
0.008272889323421462	0.01785628024853537	-0.006661403403775443	-0.002320035212474971
0.002376975304376713	0.009237478546429263	-0.002361234277361996	0.00372103163443556
-0.005345529571773444	0.004286158711424822	0.005231015106052933	0.005918788647427175
-0.01119350265552586	-0.02897289355369874	0.01411622111363123	0.009127220133121779
-0.009234914805178409	-0.01508896081540969	0.01370380220498739	0.00721315410318607
-0.006485906177335968	-0.004867503042321773	0.01307922373732109	0.007922490019010155
0.002829114712236588	0.01667127312188737	0.01060910291202976	0.0009052877688656141
0.005448338141991221	0.02352986707357736	0.00805590208920243	-0.0005804565097524599
0.004566285855847911	0.01803868913518735	0.004592859595375174	0.001377266814694928
0.005310562400752295	0.0164551611330058	-0.001657039382343261	-0.001041733158145343
0.008163950246450101	0.01541312012985952	-0.005939135249685733	0.001774200587528413
0.01143545237586824	0.01319885655968932	-0.01033976756805563	-0.004477380231119449
0.01616272657243398	0.01343499781906008	-0.01592047215887748	-0.00394694651615832
0.01489090260661024	0.01098310587714987	-0.006545978304710243	-0.009273133856946069
0.007338772248105799	0.01003304165331641	-0.01192178356777962	-0.009715865612055027
0.004604118007005861	0.003245983917990731	-0.008123977583491745	-0.0050294189679737
-0.004942963448524702	-0.006844406209607602	-0.008593351094896085	-0.003224525499355502
-0.0106693387466443	-0.008100483348185403	-0.0003959764692547062	0.0008278415718665705
-0.01795648260846223	-0.01007578227664288	0.005541110095149859	0.002440434363062032
-0.01590151422776591	0.007605238079342206	0.009019923836632849	0.005940961742251481
-0.007569070605772321	0.01021814690958567	0.01499941095236027	0.01155925095611269
-0.008963933623277799	0.001494582594896977	0.0146242060772922	0.0087833925842475
-0.002014035724091858	-0.003304771345695462	0.01092484995559219	0.01001923772035199
-0.0004273526010109064	-0.001417718117290672	0.01189949815746224	0.003664886737475211
0.007038819837044141	0.00598325301437261	0.01079279173645213	-0.00191505011130562
0.007144459703224988	0.006198821027588729	0.003353394743567677	0.0003737325763570984
0.006821898721188193	0.01215590026477187	0.003853054274378314	-0.004986080637719838
0.006723293455174917	0.009236486775464325	0.00429068735312992	-0.004688258651096948
0.007754514574880533	0.01026082232513372	-0.003358589604262005	-0.003565275578694417
0.007040566717842479	0.007720699482006984	-0.002694288888666269	-0.003827216057958258
0.006288349887519567	0.003123313091817106	-0.006293124385182215	-0.006470728932190473
0.005539520165369697	0.002246311712447125	-0.009696419613289623	-0.008993881563572495
-0.0002464025562276303	-0.00476358902428034	-0.00932055733055495	-0.006092809258167979
-0.006395529040525929	-0.01365298153857035	-0.009721949573766996	-0.003458113202930992
-0.01177174748513475	-0.03146369828375595	-0.00612411137835204	0.0003404973434742642
-0.01530546120356508	-0.03826406472015263	0.002634948576857693	0.001469453651706863
-0.0125583206287741	-0.0390420206789222	0.005581107809532574	0.008892903609200805
-0.009508617939127719	-0.03678911590068737	0.008748908464780181	0.01131794654209607
-0.01209386863039616	-0.02361716620546049	0.01910747865589486	0.007621597361655446
-0.003353486046061854	-0.01480884605218839	0.02096214784410748	0.007575034755303101
0.001307582850300334	-0.01502792165523796	0.009831412600717435	0.001802709753162684
0.002603045745991206	-0.006887225458519911	0.007556231336544715	-0.0008305514012031882
0.0006259646295751039	0.00903223845096339	0.003639474742197587	0.0002213264295118427
0.001710015939593189	0.01305541357517009	-0.004786349815832483	-0.005173692500856138
-0.001853232580969622	0.008195160849592745	-0.00924609129887017	-0.005867993220474471
0.006851624060399516	0.00330346514186477	-0.0110500731340967	-0.003962112316635284
0.0100871676508346	0.008312173892382547	-0.01194297943204089	-0.008816309004766166
0.007121894628957883	0.01221296656907314	-0.01869342984120617	-0.01072090993020487
0.00579161536510673	0.0127765784113567	-0.01291459843108472	-0.01042285287409955
-0.003218061854488345	0.01397701952821109	-0.00917475230121656	-0.007017448880533856
-0.01265646013659836	0.01148797190322073	-0.008581461822323526	-0.0008705773249766703
-0.01836615615624618	-0.006766959811344848	-0.004789474372836965	0.00444970702068636
-0.02113086312110386	-0.01416576740566283	0.001020548113674896	0.01035120011125478
-0.01850104112245943	-0.009949503427016613	0.005316776126319453	0.008006724945236573
-0.01583854610800254	-0.00428317664827998	0.0133045493565473	0.01197560218160556
-0.008152169635553748	0.001808588620362198	0.01223300392871843	0.005916043993410302
0.001424133936238048	0.001073452939429779	0.0149651866314789	0.004898260430961258
0.006321647661546741	0.01255388073675122	0.005191989087108954	0.003929919306473112
0.008238865705064423	0.01555122641012499	0.00361612579658623	-0.003009627317479271
0.01077742114062447	0.0180937842012047	-0.0003341911482524464	-0.0001021797277857492
0.01223258586455012	0.01717816902728134	-0.005304556802949092	-0.001839460050257835
0.01275270812201304	0.01944181202228882	-0.00561813120532079	-0.006053340181073228
0.01618366997355149	0.01841360767521954	-0.01009608777837918	-0.005993413257054534
0.02127667406116635	0.0192768779479904	-0.007985531132116135	-0.005808260385666284
0.01279605204549183	0.01719403144468909	-0.009888115523726194	-0.009089885774679014
0.01127767248832521	0.01135479199048866	-0.01732479291958567	-0.003761516319349332
-0.004771128759824756	-0.009704024498083485	-0.01162558883896348	-0.003857593009809018
-0.009362783877585591	-0.0129995698765593	-0.009618196259400852	0.002848344082542502
-0.01557992445618143	-0.02060879998557789	-0.005099640606806378	0.007834324121103799
-0.01439254621683148	-0.02530931238236099	0.00062913585500639	0.008662527541931239
-0.01615969135639248	-0.02977157656308415	0.01179234929346197	0.01056534415365276
-0.01173282544337546	-0.03134501531343242	0.01288894246641478	0.009155785257744053
-0.008778982925189414	-0.02433433351389034	0.01470478930962424	0.006708417802088982
-0.003145568720663379	-0.02405081315004763	0.0152889345530735	0.000308801741881172
0.003194675763680569	-0.01965138641065078	0.004703085443126586	-0.0001299184233301815
0.006966084849627105	-0.007103388139378265	0.003379972222921481	-0.0049255248148959
0.005142961686282391	0.003337929565371622	0.003231697209740095	-0.005842667777835373
0.001096102517989175	0.01406225945281006	0.003025342382990908	-0.006030651888666801
0.005961752143092583	0.01242265763934782	-0.004819468099084374	-0.005069223929505055
0.003406552304337257	0.01391236818557769	-0.006893895041090338	-0.00869788492414723
0.009131964783314083	0.01498139204884181	-0.007768560169420204	-0.002377636960266253
0.006167969077393356	0.01266907612290341	-0.0115376470380275	-0.004476799528660323
0.005036757163650675	0.007422619796772504	-0.01719540627934865	-0.009534386094787595
0.008080171859849149	0.01542550383079127	-0.01825316181142958	-0.006471651526733999
0.01820502059513615	0.01212848723751356	-0.01270015159027274	-0.0002302184812110993
0.01589524406525004	0.01019586690147421	-0.002305648669272337	0.002387084654510715
0.01368977005880259	0.005896923935317512	0.007574120691111854	0.008453231194014787
0.004555027526152774	0.005347475277491594	0.008904170370427641	0.01471493506290153
-0.002227500004622098	0.002776889841265968	0.01807319145126109	0.01541546636474331
-0.01090617678357666	-0.005721802529437457	0.0141181483255663	0.0102131909921997
-0.01429990287888034	-0.01574550121545245	0.01144242419784847	0.005278001688561922
-0.01635600516743083	-0.01605168959434145	0.009983507688255035	0.0009287376939028515
-0.01590063050249348	-0.01931914110938723	0.002785667552730812	-0.002285290229116572
-0.01162775458582331	-0.01363647160092309	0.004416639733123165	0.0003702757707150418
-0.003168528569452099	-0.01619158208449265	-0.001089197889525144	-0.00201094109507642
0.0005489366112053155	-0.007471407048753827	-0.006517056263148073	-0.003198359229127769
0.0009344233016302132	-0.005291538079291908	-0.004370290906030382	-0.004934458327191134
0.001876220178578926	6.531669971246608e-07	-0.005711063739839236	-0.009704355696733042
0.004453857801404979	0.004036258495170845	-0.00959160642065547	-0.00827245403412295
-0.0001117713930202868	0.006766089320137489	-0.008352040242081428	-0.0101798267694964
0.009724842618619852	0.01202509535302468	-0.01022899232580759	-0.004306329063611869
0.01171661195085366	0.01147819511949196	-0.00556344002489822	-0.001815325288959746
0.01124678336427026	0.01278044808562177	-0.002378007846977088	0.001559088000649626
0.007597169882175997	0.01600162361158694	0.009014778571540673	0.004994867556051994
0.004288327652853768	0.01262619130869835	0.01428628702986238	0.01208884994203535
-0.002568950360170583	0.01418248627414625	0.01615131468014464	0.01036711244126127
-0.01022453776028579	0.008178873691827846	0.01663045128649924	0.01120508285045524
-0.009890447989941976	0.0002010648067286626	0.01184282934929615	0.008354556669318614
-0.0104991433635882	-0.01143712408851951	0.007382638961655697	-0.0003435284058070456
-0.008857038541247088	-0.01296666839781076	0.003898214434405207	-0.002330978434928356
-0.004397528949936389	-0.008324207713711524	0.0005355529087895424	-0.002764577775669518
0.006208571904203112	-0.002735822322882126	-0.002166062316573575	-0.006584644528626801
0.005048158874389076	-0.009355740582894735	-0.008262274922454264	-0.004433247716276702
0.009309012269058023	-0.004342218196231324	-0.01198568522696979	-0.005570205535422586
0.0131937529096879	0.002807625437926987	-0.007359603105381175	-0.008854613944659157
0.01425210219369992	0.0115049573443487	-0.01191823476466191	-0.00834034710239203
0.01391304277117148	0.004825365007716564	-0.01654231835948157	-0.005091564280529625
0.01577292921912813	0.01697959598539639	-0.007083736162487343	-0.003951708567057967
0.01361890701919139	0.03751003003030057	-0.006983362308636228	-0.003373468497754826
0.008927129161055748	0.0366784765611773	0.0008017219776529361	0.002407961677444755
0.009022688484200677	0.01904737586316064	0.002940107424941271	0.008498900977687704
0.0004934088576664082	0.0129120766089296	0.01010162642096277	0.0112384913796641
-0.008823225794260611	-0.0005324162175323385	0.01251699263724968	0.01282767677721112
-0.01635366178155316	-0.01181226116977502	0.0130513633887632	0.009583939035043324
-0.01853619339335219	-0.0206467083665591	0.01426855722768795	0.00457541790710742
-0.01954909066521501	-0.02046600307367117	0.01236889729532257	0.0002246555346605814
-0.0253044718524318	-0.02248047577365876	0.001465596615481958	-0.005440931086302044
-0.01414134704941016	-0.01586142429290453	0.001030795272238978	-0.008253959930723092
-0.0139657319288987	-0.01015485646176763	-0.006302643081041589	-0.004599858660863049
-0.01489148510739846	-0.009605635134046272	-0.005782461640883826	-0.006078223192242153
-0.00382834438361144	-0.01531635538254574	-0.008357103503235892	-0.003927478658197744
-0.004827185770431823	-0.01490393586525022	-0.00357582350419398	-0.006619759049104247
0.002822485175427561	-0.008862620112095368	-0.005028929146914331	-0.01335386813741866
0.009766391989921143	0.002917510973225862	-0.01092230375473295	-0.008383399196318078
0.008015408856914454	0.007245372886976026	-0.009160413750153005	-0.007762063601263607
0.01416184142913858	0.01504117512162985	-0.004380633891140667	-0.002396519260114609
0.009871615336653979	0.009508251827387551	0.001605596567624061	0.00133856348805611
0.006677728196052358	0.01163562890302541	0.008625973514103562	0.006363106117845694
0.001834057631868523	0.0213647353476266	0.01543946803512665	0.008304234194013592
0.001606006124127499	0.03026553848284541	0.01308708120081389	0.00805813078667897
-0.009170638747155667	0.009198479808364857	0.01129782511947275	0.01209167756339134
-0.01533346019298642	-0.007831000187736924	0.009652879896501371	0.01037403244379686
-0.01508311912446496	-0.01123795406562222	0.005562290957815384	0.003150706020191352
-0.01603063687001395	-0.01762911431126162	-0.001923356842553927	0.001508409105944394
-0.004841650261548027	-0.01394238424155541	-0.002348405742473698	9.066577979703665e-05
-0.007887188480470913	-0.01992808872665455	-0.005191979289674952	-0.003043345572503848
0.001565973652636994	-0.02048856023629292	-0.007041788501926309	-0.001216461884071223
0.0005660382981879703	-0.02010600173077626	-0.006064857083146877	-0.003236652018763767
0.009498335677480501	-0.01022526872952234	-0.01128933555147766	-0.002585361792918903
0.01317201081481813	-0.004710225642749073	-0.01268636594916921	-0.01034837209184135
0.01500645957651065	1.845315776075773e-05	-0.01698536760651554	-0.01055538797093704
0.008882895838095494	0.0008897023709887323	-0.01915870165815036	-0.006758145505613161
0.01149710628458396	0.002933320370463454	-0.0159289182661335	-0.003388624783415318
0.01614022569614727	0.004836447080216624	-0.005875661569915546	-0.001104799320566975
0.009448469602129578	0.008558023438992122	0.003324338792559818	0.007753632000103009
-0.002615153124832227	0.01591992182773848	0.01054345831935392	0.01047006635826145
-0.00648880348040957	0.01091081420164156	0.01473361311456834	0.01253048672085174
-0.01267887282793223	0.001036973607794592	0.01415542079421523	0.01077607221247715
-0.01382969758108084	-0.001488793719107506	0.01435501862342714	0.004098249016217674
-0.01672267330791299	-0.007297517357810263	0.009178655329120843	0.004508022143930314
-0.01732759435838303	-0.01209968403431728	0.003111991363167025	-0.001295407865999287
-0.01144204265694971	-0.01382826406167249	0.001496405053877169	-0.006266125013126582
-0.005344987138267996	-0.01002805518443848	-0.001042451879025996	-0.004225697849006654
0.002740123844302651	-0.006402554394541457	-0.004767155605189828	-0.002569901191324067
0.00679399444171679	0.0006305227964666922	-0.002529711160920051	-0.005950991665583541
0.008322182974067288	0.00205490424464287	0.001782896206242673	-0.003524070997314255
0.01018883202022091	0.002643603759829247	-0.005937835023143998	-0.007276628309507758
0.01554128217966575	0.004250000725116398	-0.01463088213813396	-0.009124073205091694
0.01606490094131077	0.005554900812411528	-0.01469847145967947	-0.007094884008846811
0.01352053034272671	0.01245890652481707	-0.00951660788714199	-0.001648674812660627
0.01236284216230743	0.0166637972669344	-0.009702751660129055	0.002334520474287505
0.01189941937991532	0.01214679296779222	0.002200418219368747	0.006600474646883989
0.003975473712414575	0.004958434377328663	0.00920909041201992	0.01198881336773691
0.0005513167547216333	-0.005054610522105729	0.01499873874400331	0.0152350270560285
-0.007867000939871322	-0.009382380612336488	0.01917549247324141	0.0134569736707194
-0.0157094924737394	-0.01296291298520817	0.01660955628926926	0.009973312377117963
-0.0122378266650256	-0.01738235861819327	0.008246419095466154	0.00440167775556679
-0.01617987695641359	-0.02345285381339431	0.003361035829310837	0.0003741971942037102
-0.006893601729561673	-0.02126500552123294	-0.001018802606971805	-0.000897925677283692
-0.004485281911691733	-0.008067557519079324	-0.006115972154068463	-0.004374502168989932
-0.004431393091109529	0.001082668575450886	-0.01029503998363495	-0.002486031358713212
0.001957884374027153	0.01015605127619239	-0.005939900856309499	-0.000864189103563255
0.0001556228181940643	0.01730706682711628	-0.01227018432216866	-0.000528351426252687
0.01330003186868928	0.01764343233340566	-0.00991872760280804	-0.004482801858194914
0.009506872932845164	0.0200157969615645	-0.0161844863471471	-0.00534118693361398
0.008879432836038776	0.01912638825646199	-0.01392072319747281	-0.01193171720595141
0.01636815995056816	0.02373648751673968	-0.01102621682498891	-0.00850469002493716
0.01817607595247691	0.02551481082612055	-0.005683568115500316	-0.001802167573078651
0.01446383302990109	0.02786577187121736	0.005211212622545263	0.003986884016013896
0.009294270639278891	0.01123833482763102	0.01015508470628908	0.01341730923909272
-0.0001947614794052285	-0.001835125793054482	0.02229983206599471	0.01226710210622715
-0.0130919966583305	-0.01677238012882166	0.01620298862731028	0.008238961371858828
-0.0204255775425954	-0.02547006659074648	0.01393738473705311	0.005895681164314914
-0.01809261017804588	-0.02775698345060094	0.009150867526946528	-0.000807650868733875
-0.02143850491163093	-0.02510288508537911	0.009422588414234974	-0.0063633021265576
-0.01444886559522679	-0.0228993245009623	0.003299993181468618	-0.004571577907736128
-0.005926215156791129	-0.0136534543448457	-0.0004497743767840898	-0.007991715561386881
-0.001882136389081409	-0.007375773355303821	-0.003487059184655353	-0.007505080352650103
0.001181303596288821	-0.004880368378521938	-7.604097226875713e-05	-0.008566986976062141
-0.001354314406105555	-0.001781657087670702	-0.007194535328124734	-0.007355014442622711
-0.002680106115452614	-0.0004134476702868577	-0.006184081486920692	-0.007318979345848301
-0.001097481463997706	0.004026525057102014	-0.01015176900772199	-0.00937232672530048
0.006173416888307093	0.008702618542922617	-0.01174798805048367	-0.004762332597835111
0.009311211670146478	0.01375185596817614	-0.008889743202127601	-0.003504680269402709
0.0089586038287099	0.008125100972334046	-0.002421457814280611	-0.002154933974044287
0.005670253770443486	0.008485188392902784	0.001898647540773967	0.003495798928573094
-0.0001197194803484172	0.01431585983795504	0.009480298239385992	0.01053945863978496
-0.00118156136742781	0.009650852725964276	0.01515324431258968	0.01169579302591442
-0.004669517168342616	-0.004903380415936381	-0.004060147534687727	-0.001851289718350532
-0.01681028819892263	-0.01329586698943361	-0.0002372202159074557	0.001283028492031695
-0.01418192546315064	-0.01814423965742377	0.009451472805691325	0.007682501525740577
-0.01379392127506198	-0.0222828838353294	0.01091815845107266	0.008652642886205226
-0.009254461180313324	-0.00361283629434039	0.01587117338562333	0.007736893552050726
0.003354834230646815	0.01252757861218396	0.01068550081640481	0.003948070490238558
0.005199909601044547	0.0060980634329764	0.00877769992888127	0.001471689798115526
0.002946803996735903	0.01096600896741034	0.005303932279113001	-0.004106598707133832
0.0005166247089983236	0.02094617350199382	0.0001687242664032198	-0.0006454848711916392
0.01082716113550184	0.02231110166262917	-0.01017277835021522	-0.004705726612357432
0.01192544423069226	0.02089719337318227	-0.00897875060422264	-0.005697011231819577
0.009075274337250111	0.01973528694200936	-0.01178498957499985	-0.002427575836503825
0.01145225740219008	0.0217239573809472	-0.01176273246769797	-0.003084949914705075
0.01111838660547597	0.01631361687425018	-0.01454078232144072	-0.006433356324720808
0.01020035262791763	0.01362792842436735	-0.01547752427104452	-0.00886448435183503
0.007361013786477731	0.00759226566520059	-0.01425199777732493	-0.0118867434718873
0.00207821971902994	0.003751588899411297	-0.01581256179731047	-0.00757030908867684
-0.002027228087730185	-0.007510731350215142	-0.008874108127021964	-0.002615063879622078
-0.003382131504497214	-0.01391072118413597	0.003871504318093629	0.004744260740675414
-0.004962860240897485	-0.01379061376288902	0.001847527380986463	0.01277464171908583
-0.00823276879619322	-0.01900898216405309	0.01152642745162454	0.01163620076803754
-0.001233409806767408	-0.01398155250124722	0.01647607261612626	0.01458501504618649
0.004027175444880216	-0.003799246069886476	0.01790371067622648	0.01108108475382543
0.002540818413770508	-0.001653545487757784	0.01124901066884572	0.00284896318710654
0.00404304429718388	-0.002865934256087772	0.01232974250413729	-0.001136689434145865
0.00380717407298165	-0.0009549267458179168	0.004268629512780762	-0.004635443379660565
0.004186480014966971	-0.001708561384768417	0.003024161931909012	-0.002887086750864465
0.006414119327080707	2.324728147508284e-05	-0.003234897730270555	-0.01168972185191573
0.0003354408824959709	0.004105451070202415	-0.002931275233375762	-0.007690746268488763
0.004769862152967145	0.003024022889028741	-0.004578839929304607	-0.002570819346083894
0.003046686575734335	0.006117567762479023	-0.003239748169845089	-0.004469044191424091
0.00415797842425532	0.002236922289260196	-0.009604119589744378	-0.00943831201386725
0.0001362072604130348	0.001949874327973982	-0.01501864208588522	-0.008748058565668524
-0.005789684096417366	-0.004437607521849117	-0.01016065172723165	-0.008357883086209682
-0.01135352513886691	-0.01090346200125289	-0.007842089435083372	-0.00352935678732943
-0.01139572000668875	-0.02294099438832641	-0.0008488127473457613	0.00135159332609855
-0.01358217867759122	-0.02869592785242662	0.001298544019982045	0.01034893213441788
-0.01828866695785284	-0.03442643151380568	0.009916208012888068	0.01588948181403807
-0.01575381937153526	-0.03216587634820821	0.01422057637140216	0.01426654063982789
-0.01347035909735669	-0.02616545831349491	0.01651276757683486	0.01157474261561547
0.00020400795303029	-0.015745101364284	0.01937690821460937	0.001314877793286627
0.003714344185625589	-0.005287386804877997	0.00600922104581905	0.001737714573198093
0.007473461376695419	-0.000633812886657581	0.003260274376217653	-0.00387569916867994
0.009159912589133656	0.00435943481823033	0.003051453717012563	-0.002558419000254695
0.006475920444172595	0.006801862645131214	-0.004773761469036131	-0.002163932061847304
0.01449196001070501	0.007166534571415876	-0.005590126287245283	-0.002908233109097901
0.01715662500997059	0.01604766675615131	-0.008966385470517523	-0.006004500348446282
0.01950864598498333	0.02541706175207233	-0.008880735166203703	-0.002304198409174431
0.01938066850555425	0.03695121657470288	-0.0119805987038177	-0.00689527185625043
0.01558281984742186	0.04048361069882719	-0.0142346370795906	-0.009329660076878141
0.009017655746944367	0.0348188311859231	-0.01225081131582351	-0.001914186866449346
0.0002914738147076774	0.01900303263046152	-0.008770928723112761	-0.00128889296095504
-0.007771569295575584	0.0001192227724585145	-0.003818836680190408	0.004465775922972578
-0.01038931652252048	-0.007972912706681674	0.005173981184676946	0.00960004442264537
-0.01177692551569157	-0.01421064094960173	0.0148157008317805	0.01099693898959884
-0.0115352959769719	-0.01283868997980627	0.01354395598014409	0.013221774658467
-0.004163397816239669	-0.010311487984611	0.01841563104949703	0.0109589653327213
-0.002708847299074282	-0.004585004482824637	0.01322685212787439	0.008845017757284902
0.001101735072546946	0.005110244134022252	0.007033397364353823	0.002936452379487924
-0.0003755388089284856	-0.002440829646495001	0.003103060066230354	-0.001615536346156335
0.001696873619398787	-0.005000711240430541	-0.001289181569349397	-0.001298917494441982
-0.003721581293163307	-0.003676126370754825	-0.001689149423403319	-0.002234817175900199
-0.003116266163606281	-0.002828786596847185	-0.005366167196064801	-0.002057389566103807
-0.005985229437373245	0.001576338313634867	-0.009918968957893229	-0.005317011512191682
0.0004500015075441957	0.006952903902580413	-0.007632714561752545	-0.004307714573455987
0.004801129355770193	0.01136241988642844	-0.009213365873234992	-0.005804705392972487
0.01017699499959791	0.01045535332671526	-0.009826670542807123	-0.00475452149870949
0.001671049862102029	0.007828427039097304	-0.01110742730096571	-0.004672797493682468
-0.003060546722523945	-0.001160342362537627	-0.01176824669484074	-0.0102420076772344
-0.01267825842975491	-0.008618157152208566	-0.008893559658388272	-0.00291248528170509
-0.0178363060413022	-0.01724379823948426	-0.003418437374880939	0.004158438781155857
-0.01292404698056146	-0.03029110775034876	0.003475832981703005	0.008932591602220617
-0.00929560025196651	-0.03283794567992281	0.01245577145890671	0.01035183309814701
-0.004278454737374795	-0.02568550842262849	0.01441820246596826	0.009755709957099613
-0.008484696119554614	-0.02572689604742624	0.01808013720748832	0.0104551914031869
-0.007469303314554586	-0.02302426809173063	0.01387408979356964	0.005183295233873211
-0.007113621143653623	-0.026075840167209	0.009157186241151338	0.001763750789584548
-0.0003064807280398586	-0.01313943203573809	0.003388698633369244	-0.005044165251324354
0.0003390218052557945	0.004177398053402336	0.0004435793571865499	-0.003945831508397925
0.001743806633879348	0.02493499607411476	-0.0006120264767949249	-0.006664360465560295
0.009600623908512202	0.03591955686879289	-0.006969623695196006	-0.007457586585382454
0.00959093722640926	0.02744626835642103	-0.009913084111189617	-0.009063221975313151
0.009582543409913116	0.03126635154408082	-0.006990929608394158	-0.007980549238364479
0.006375735572156078	0.02865512979020283	-0.009525810125635978	-0.01138431454209889
-0.004499165213019987	0.02188587801144531	-0.01351201302326565	-0.007232426524432952
-0.008170756656987323	0.01075774873704222	-0.01468837749096974	-0.005973425863742278
-0.01102307652003435	-0.003230338106459143	-0.01322602944613975	-0.003753590362271295
-0.01417460176682449	-0.005429444262239843	-0.00797959865658468	0.004338383977576942
-0.01378071172216047	-0.006226863499886266	-0.001412887205165843	0.002472451087275784
-0.007332158935827891	-0.009160505148966899	0.007134797121624105	0.01020939984939756
-0.003735254514361825	-0.006309316853341684	0.0135371379056469	0.008121316624361438
0.003374786649865422	0.001133374446341514	0.01445280555027153	0.007783035294201714
0.005188744275526585	0.002276158552115336	0.01363750492860788	0.004664703340519248
0.009331213677428512	-0.0001931824629727572	0.006364894655482939	-0.000236816776731584
0.01272080260699871	-0.002704692884118551	0.001884406673297137	0.001087265364117005
0.008858730262570514	-0.002446309176813476	0.003507150789957262	-0.003144542975958403
0.009791154531956883	0.001338219348169704	0.0001450136410497342	-0.006890320290900168
0.009108501388795856	0.008990790161794944	0.001341559805141811	-0.00432437170975934
0.01617410368391231	0.008024220110268968	-0.004906948371321983	-0.006325777265935481
0.01206666262387742	0.00788875822255759	-0.00723590117491416	-0.005270698722069925
0.005105485103853251	0.00460043398630844	-0.007066647321962616	-0.0104946795548484
-0.001960416875267197	0.001175683154720499	-0.01305355802912968	-0.006517970184507916
-0.00854489518653552	-0.003404439353967028	-0.01837176719892388	-0.005994667388598536
-0.01452695414952406	-0.01109088393744845	-0.01548403692743346	-0.002445119305309853
-0.01565171726376569	-0.01002875694420327	-0.006205705911389963	0.005041380978258216
-0.01511568266583375	-0.01552978898371135	0.003802784415464878	0.005809932904435281
-0.007869885463866501	-0.007347566955758457	0.01236735579221733	0.01226956300834362
0.0009779115557580088	0.001145328787724101	0.01742142979299191	0.01218683314735802
0.001575703573296786	-0.0009695320596451442	0.02007026464746027	0.008985151438260574
0.004350435864175673	0.0004769316079909807	0.01993018768708784	0.00366053827516905
0.007052992146286297	0.0003357264984419802	0.01163340178829051	0.001283568747389263
0.008968766402651261	0.004084969507122673	0.007339164062297408	0.0005805501257982813
0.007806334675979085	0.01288550834142152	0.00367552707095916	-0.001100136299307722
0.01264049613816751	0.01641939808777117	-0.01042302625380841	-0.002824476315005687
0.01486622933452252	0.01966825864549625	-0.01152736206104508	-0.003043054791700508
0.01988131563592997	0.0196969972138974	-0.01002269405849743	-0.003665339413803103
0.01970489740890316	0.01869328666299195	-0.009541172855573351	-0.006497929128837399
0.01627113492062585	0.02018108916640915	-0.008858977566539491	-0.009350298101548063
0.005261689416901553	0.01639399994200412	-0.01328836491940546	-0.01003602695112135
-0.002218704179960357	0.007358003779651593	-0.01151291982486348	-0.004850860587531374
-0.01214136701261099	0.0002694182619386139	-0.00562593459229245	0.001161826245889138
-0.01538993929353298	-0.01065355238168027	-0.005809490369965795	0.002712510140620929
-0.01803216715065613	-0.02153906733983981	-0.004622770407641964	0.004792485596295698
-0.0120199604922736	-0.02261431294109099	0.008246760424316629	0.009321049070102293
-0.007672402558454462	-0.02270574921060444	0.01358163528701745	0.01269095116407673
-0.002544849903070532	-0.01626462762294675	0.01450793113058594	0.0137920436855899
0.003590565816490642	-0.004583145725127778	0.01687454658946468	0.01327837820060505
0.008956873556930549	-0.004903404612993972	0.01314925858914907	0.007990141171576565
0.003983364649121893	-0.007047086655530519	0.003557663584835067	0.0007963985600920292
0.006294086352167262	-0.002948820723518339	0.003716194523788941	-0.0005663326054550183
0.007692472841779697	-0.002037863898374933	0.004200624611710733	-0.002739453456176407
0.005325468387938827	0.001227128293409605	-0.00165554352742005	-0.003400080682998765
0.01246707530416825	0.005400467527724166	-0.005027625587149285	-0.007773153232043442
0.01089071708222965	0.01451536641559324	-0.006002204361570664	-0.007519215536643455
0.006977022455115357	0.01474074462107161	-0.008253759674217159	-0.0076900220391518
0.0004441473217497738	0.009479312980477526	-0.01298863980484581	-0.007765334234467829
-0.004751980764424878	0.007047312602210269	-0.01686049739310239	-0.008442343157274242
-0.01256380564507249	-0.002614971033118402	-0.007079482840339798	0.002323931295578734
-0.0168387473078574	-0.01470225174150571	-0.004631743824021928	0.001812505491145243
-0.01531005437091189	-0.0196371948234183	-0.001521878300576664	0.006237272573472082
-0.0150370404085879	-0.01665296437108709	0.01196805743264427	0.0102798952674024
-0.006884661050132772	-0.01904167044176772	0.01256128242184919	0.01451141166748872
0.0001796444146792115	-0.01857796408398002	0.01660525298937397	0.009411528087845837
-0.001599592378731704	-0.01331125338066733	0.01609690964518308	0.005745393606683299
-0.001412479514816243	-0.008415014609086691	0.01216217032077914	0.0006140376026272005
-0.0004768373087374175	-0.001839120212400172	0.0006677597590279548	-0.001453673013325181
-0.0005509837811210984	0.002624225078627794	-0.00185248379247887	-0.005529381203631587
0.001536252795060782	0.000656173887751005	-0.006470009366069079	-0.004718202567978366
0.006156191176241207	0.001028862569775444	-0.002425690789302096	-0.005478364746476195
0.008040561230566059	0.008862569493221588	-0.003541060065868516	-0.006215728434515997
0.01121467856976358	0.02775572131886837	-0.007389396288619871	-0.00758533212114426
0.007504242639718101	0.02306661122883787	-0.01085719450799889	-0.008563346435487781
-0.0001326163787648857	0.005297177293375891	-0.01072940408290433	-0.009875468492719803
-0.006373625001413789	-0.01022768175594996	-0.009010270114203394	-0.005520512034127811
-0.01615910057617644	-0.01933517700242408	-0.002403776338520764	-0.003739015856665698
-0.0215278630158536	-0.02509181019520622	-0.00425021014321573	0.004207771467981703
-0.02148574031364931	-0.02483366748674513	0.006059926508013338	0.002770890359402169
-0.01719704459432773	-0.01333177454365216	0.01068718383466325	0.008231303633051787
-0.01390671607433339	-0.002376694791671052	0.01641620294823758	0.01426234701847218
-0.004678194922011513	0.007442882589394736	0.02009425682584747	0.01230516675608001
-0.0002382452031376147	0.01243543536917272	0.02001167232949603	0.008516411018802671
0.001300975456151783	0.00281131242205248	0.01305670915922502	0.006796417461600342
0.01014841842189603	0.001667882492155115	0.006266289668825606	0.001253484126652758
0.008736428939069375	0.006713258213172177	0.002061332362584867	-0.001265584692159541
0.01351456263318783	0.01078633582895906	-0.000938532859616821	-0.003342401446445029
0.01869830508510602	0.01503575606737061	-0.00427798843538179	-0.002593715506212709
0.01566973679222318	0.01745354109540878	-0.009543708065600233	-0.00733068668792166
0.01847411603443093	0.02212067983422386	-0.005842642170607933	-0.006255705342590507
0.01573319066769638	0.02362700632332072	-0.006210623088382805	-0.01135332934845494
0.007887063891073567	0.01370010373533518	-0.01629913247311034	-0.009716395825031119
-0.005146053005851554	0.005781225125440072	-0.01322321914908907	-0.006885100767526678
-0.01347438006978081	-0.004823818336640787	-0.01273498964919933	-0.004410971406734431
-0.01334872268531919	-0.005930862429827578	-0.007530545801140009	0.002072184800803854
-0.01373409441037413	-0.008605173812025847	-0.003671060163664189	0.004393043348827753
-0.01654783582179507	-0.01919923839234539	0.004336659378414633	0.004486043801890354
-0.009342695590168452	-0.01532914425940337	0.008514199039432528	0.004502391919489947
-0.0006245067064995776	-0.01113400984592054	0.01275105484336935	0.004646716191662148
0.005191437625459256	-4.848578896202506e-06	0.01752439808272057	0.005686377592645696
0.008657865476065412	0.0006898364268984531	0.008699586434102556	-0.001825843974450015
0.005575762546467158	0.001891654109723511	0.007043802065059136	-0.003442488973191009
0.01643676681270035	0.01893469124121627	-0.01356011068782322	-0.01008645059921958
0.009506604282966413	0.00862779509028142	-0.01895711566328875	-0.01330865050057493
0.002832179259803406	-0.001012864462938792	-0.01527520672545726	-0.01250198838227756
-0.003701904855551629	-0.0109175239177384	-0.01116647139836792	-0.00811403037042392
-0.002449862451618725	-0.0047001825214954	-0.008476754818352573	-0.005139509148655345
-0.005405503211490607	-0.005236410904329187	-0.006615446865237662	0.005350183744750972
-0.009167665569575842	-0.0104730468325639	-0.0003017600056571764	0.0105546619543261
-0.004063046250700169	-0.01033045166422201	0.008165015634519544	0.01538007030440462
0.001244875875406525	-0.006476522120132341	0.008093192828717842	0.01380210868889344
0.003419052532962894	-0.008586483160918139	0.01439422647120674	0.009072848667305566
0.0005491873187116984	-0.009630023084644461	0.006543971574903109	0.001372820775371038
0.006201931147763655	-0.006504498347245454	0.003390621205296181	-0.0005807147496673098
0.006200249894710766	-0.004883450549226449	-0.00200116927987054	-0.001092396124230346
0.009574857988533537	-0.002062319435042945	-0.00178397972281136	-0.003386315084739846
0.01559375638763634	0.003310528045235074	-0.002398928915606711	-0.0058158379941381
0.01436273933494794	0.004940517558384438	-0.003948935518180596	-0.004394471230352771
0.006361007596722585	0.00332507379532692	-0.003714185924328117	-0.001874132991989584
0.00102959406790578	0.006852328765213673	-0.006886639071529289	-0.005128194583757736
-0.003528669657027545	0.01965964267126097	-0.01152153027676932	-0.01281566101061197
-0.008806701768008742	0.01047184756357769	-0.009033440677045616	-0.007984761063710924
-0.01645853036975014	-0.01072507819114507	-0.01494097178709625	-0.0046365343134593
-0.01630858887290861	-0.01377945699450204	-0.008265337142023838	-0.001588342428137059
-0.01584606292129952	-0.01537618886736735	-0.005185611901295952	0.001520657389617821
-0.01848850060020237	-0.0147120219294481	0.007299444554976477	0.007430069920909278
-0.0115353603878693	-0.009123997120456433	0.01600771241269915	0.01122354488586545
-0.00454947880072114	-0.002024312364735403	0.01337046423443468	0.01037702259259501
-0.002184988701498479	0.01437438733969219	0.01639147627864616	0.009736893859673551
0.005108009431193453	0.02138522177898643	0.01271059615670837	0.0004574957624168197
0.005242167781691578	0.03027161451069965	0.007798529332912869	-0.003314916766745567
0.0044711778251813	0.03037889034572304	0.002126032298701509	-0.003152993857854566
0.008964419657324694	0.03703617563464693	0.001921972773261749	-0.005946368733688718
0.01372626738197291	0.03604973365992877	-0.007479035215122405	-0.002212401885381654
0.0118422296761824	0.03791015972861255	-0.006532387912367818	-0.004140616783480515
0.01054119730822022	0.02900006061975978	-0.00951672743083032	-0.004273674265248245
0.006565984185657816	0.01531062641924755	-0.009916400086688064	-0.001095690665902251
0.005804508497631595	0.01252724718208726	-0.01103057213915725	-0.002213158794325402
-0.004634948140365211	0.001247987682262184	-0.01390428626607433	-0.005873487516768173
-0.0116284690906017	-0.01160277077709249	-0.008537928637104271	0.002401567958363086
-0.007627270083569602	-0.02488066410165665	-0.008230671812328222	0.0004794512640860168
-0.01107288415664034	-0.02970553268886092	0.00081417264707556	0.009516342907530012
-0.008198333418278912	-0.02832907076219914	0.007900650101479671	0.01371817394661929
-0.0035252857127236	-0.02070284254255456	0.01533531462186993	0.01246733380804055
-0.0003385642828365677	-0.01795277082441177	0.01610355450812188	0.01008022320866844
0.003227398387455286	-0.0130574840898153	0.01874134971936214	0.006657849067488714
0.006621588623474716	-0.0107394682474199	0.01578874505228463	0.004949498762596128
0.007405931419500096	-0.01016533593870053	0.009925643014170937	-0.001416527808763974
0.006841642915190923	-0.007033696004724795	0.008300321208408267	-0.005225202721972271
0.01008424289348739	-0.004533422878325254	-0.0008297471455981158	-0.00591868706478964
0.01324956453056267	0.009647611038248261	-0.001842034644281877	-0.002691452746199598
0.01257116326164786	0.01309560727653657	-0.005820064130482526	-0.001677524042709465
0.009945637992047866	0.003990032399984887	-0.00381053535001196	-0.00390619598530383
0.006868161662508749	-0.0008865077064795538	-0.008353434086523261	-0.005303778970811067
0.001352834200441806	-0.0002852602039857153	-0.01121661474703929	-0.009398688332313462
-0.01441230446348359	-0.005205961687547833	-0.01403368475241008	-0.007016222196554817
-0.01576009616702614	-0.01196734128311744	-0.0100355742940894	-0.0008694230204833134
-0.01593142169475823	-0.01603208492871929	-0.009395933722142456	-0.0003412039326766516
-0.01702617359798026	-0.01052366357170857	-0.002065758514736237	0.00533993532237551
-0.009136422095211901	0.001484337345364464	0.003053414918766083	0.007165397874264203
-0.008734876119057246	0.003461345237776406	0.01315353641868078	0.01064401488570337
-0.00813905000972825	-0.005363480990078123	0.01862545517296965	0.01168715911422737
-0.001408742609283212	-0.003993217446603314	0.01477929036918705	0.009267222081286618
0.001756751155579907	0.01002943789832066	0.008560922315288485	0.004788284119271206
0.007726884933485795	0.00994656641819004	0.005839206794711777	0.001258247821763758
0.01511827530549754	0.01188605896538865	0.002630277950426479	-0.001946868112941434
0.01132595861261892	0.001120461643789693	-0.001155007703960245	-0.007346968748672763
0.01211401999951138	0.004687210743312283	-0.007439907519110569	-0.003559463397537061
0.01484272389218916	0.008004421445217593	-0.007475983838926828	-0.007217699978525218
0.016067390204626	0.008651871410943465	-0.008520839433749153	-0.008148587513981856
0.004000371910475331	-0.0009465903392053641	-0.01069214880949059	-0.008402904461434461
-0.0005780039852398602	-0.01262410915561717	-0.008123052882373012	-0.01011453906585532
-0.01234242283402163	-0.02338857080740904	-0.00738813835753724	-0.01021904143738655
-0.01416790622641361	-0.02005355587285451	-0.01286980989724586	-0.002597954939658632
-0.02072019084449757	-0.0295556425188106	-0.001006298399197613	0.0001357873803683585
-0.02221076753780915	-0.02862380004879117	-0.0005630157842474203	0.0005959120264696187
-0.016827794481796	-0.02107720609510468	0.00547510384907372	0.009455103747539707
-0.01030237930559832	-0.01505204116238303	0.01245314768573121	0.01427643279232297
-0.008126451984207434	-0.008007941773740479	0.01441039050893362	0.01159017089882761
0.003443701811263001	-0.001981305120889538	0.01697777926444398	0.01019703700145276
0.008260047756496632	0.01334345994243426	0.009238635600504093	0.001222398299274445
0.009964392503051814	0.01265823604074827	0.01163752687106554	-0.0004659257569009121
0.004646605359217223	0.007775055414065696	-0.0007609318126985026	-0.001846582937998916
0.00783953523033828	0.009285912231207321	0.001722032126216916	-0.005562683531932782
0.01256610110356951	0.01123641945251342	-0.001598751203332774	-0.002683175788615562
0.01714348666373629	0.01777491498395739	-0.01013753440873644	-0.002056538438346662
0.01165579376542058	0.01415860842808398	-0.008665257320370807	-0.007020125756989423
0.01216301661075797	0.00822501042756619	-0.009776436227028241	-0.007430330520408467
0.004160232500736387	0.005412467371920576	-0.01110724540374454	-0.007412255126752933
-0.00850411738452554	-0.006168074050779916	-0.01458057257796262	-0.007773234248275555
-0.01275653724626584	-0.01239001892488726	-0.007816016839507996	-0.003202471463771919
-0.01443544253562634	-0.01487392452339462	-0.004770058333682064	-0.003244738537785857
-0.01663195264664612	-0.004654011043798976	0.002074927101479397	0.002725106822520435
-0.01648514707196791	0.002334060422483226	0.008227867268902744	0.004228818932416928
-0.0120059120093268	0.002866447319427711	0.01510670624234647	0.005257775423414377
-0.00947513710985483	-0.007117510980835945	0.01697572616759793	0.009033477470510606
0.0009864882878172681	-0.002979767790365636	0.007813550421862454	0.00642096734726589
-0.0005662231529974137	0.005816600684499675	0.01051864005522186	0.004970391649642499
0.009757165641902205	-0.002344556571588923	0.006856342119793609	-0.001802804410869494
0.01114905911230812	0.002890300991633885	4.334401916063166e-05	-0.002629176520631326
0.006231843054407714	-0.0007562791768844816	-0.00518671105221398	-0.004072572333802485
0.009951518048899176	0.003854634280885203	-0.005646766751098168	-0.005342817181703442
0.01477249264213757	0.01257685487066245	-0.00945056483248773	-0.005962626215019814
0.01176024607666501	0.01987194880164778	-0.007901207248683805	-0.008832548103339765
0.008165220539433048	0.02079540740104681	-0.01343231484593121	-0.002670646536549642
0.002963715821915681	0.01371374640995223	-0.01204101292878303	-0.006623552300973045
0.001474676870367377	0.004918582184443528	-0.01303924679447646	-0.006561526658378219
-0.01280653933385408	0.005491544837729182	-0.01017102945789855	-0.00349367563480404
-0.01537155481766042	0.0006686311152866062	-0.0108156047295025	-0.003337211651557198
-0.01857987486785068	-0.004542415096486297	-0.002019035676846938	0.001483144136381963
-0.01369058698564238	-0.002763888470023306	0.005350414563896985	0.007886745043205245
-0.01281642013715477	-0.005318466283098141	0.01063367207278783	0.01473370462457002
-0.003230492728811472	-0.01139873818500891	0.01094380196666626	0.01655156032004274
0.002939880135231657	-0.009376371419583732	0.01310464085544334	0.01132555380722183
0.00402104925396014	-0.007770734524345033	0.01206604544344743	0.006452633075058039
0.01174613019030581	-0.003191154789695726	0.007960375971035662	-0.001878322438288753
0.01332137123751429	0.001724808876243484	0.009262307457976335	-0.0004675398781204737
0.01444237504766662	0.0103138305634003	0.006182732070714461	-0.003045081620643351
0.01358505100928528	0.02474951547022224	-0.00431753376189186	-0.002534878555850684
0.02251509004178242	0.02922094697410539	-0.004943303454866376	-0.002925729063538553
0.02030742932498246	0.02939234715414211	-0.002364708092020302	-0.004202064166790426
0.01421968810173378	0.03094178043827039	-0.0152718328612609	0.0007623256710557616
0.006530585915753072	0.02432340120183574	-0.006444140334955612	0.005599301168002446
0.001824262435470778	0.005796351714800575	0.0007149484272698099	0.0040621700715887
-0.00825257373464118	-0.01343613120536522	0.01005160568211881	0.0063886935348743
-0.01021616901592085	-0.01880731066222643	0.0118959217272373	0.005578339582426136
-0.01702138947548484	-0.02989785682382423	0.008711191686760739	0.003288150737803868
-0.01633698558501009	-0.03350725315864147	0.004800090015157996	0.002013511075174898
-0.009366346962550801	-0.02674725276456087	0.000442241934634578	0.001204064626136286
-0.00698294055522967	-0.01199286146091896	-0.003675867612667522	-0.004951845110068673
-0.001477926824366439	-0.006517125681539455	-0.006438887298155122	-0.005443735754426613
-0.003163789623399784	-0.008106562091163803	-0.008985845355242229	-0.008257583623976968
0.0006993554989288701	0.007202527424193715	-0.01341464206761746	-0.005223968357852209
0.001168431787008089	0.01044130904018635	-0.0077956173990836	-0.007052194261869585
0.003924989177007076	0.004204109337630416	-0.01161991558062106	-0.00693509321688201
0.007952274321166264	0.01060907833381882	-0.01116148778132976	-0.009459110811139076
0.01140569228818232	0.01727697935081221	-0.01116963174129299	-0.006650482197515003
0.01224600516495876	0.0184977700596386	-0.01052708471089929	-0.0009342056867125114
0.01141233450727565	0.01514272839871031	-0.008278171895844609	0.001025431260517206
0.00406333384052371	0.01474048037961979	0.003713175168877565	0.00534240049934298
-0.005212876550481599	0.01115856676675948	0.01028287090549871	0.01063371343093208
-0.01421573972718929	-0.0006092277394047621	0.01642683562723258	0.01295688007926804
-0.01539278713320065	-0.01161494661936935	0.02016616171272538	0.00890613470857729
-0.0167969149586629	-0.01898728643506969	0.01719301572690301	0.006810392586683446
-0.01569269141732315	-0.03011600006412181	0.008952887403688218	0.0008340045901674011
-0.009468373842728197	-0.02815143258546456	0.006889419647096411	-0.000717219238597803
-0.008973736124452224	-0.01913816917487401	0.0007265246451769467	0.003410977477742471
-0.005172659174358044	-0.01371547614232024	-0.00641575851485224	-0.005639682404056694
-0.002450796066299189	-0.009022965059874356	-0.004153916178010719	-0.004502710837071088
0.001618240765142406	-0.003710135146029598	-0.005749467484600056	-0.005896680904937971
0.007252306562024754	-0.005426632171621725	-0.00776411124650906	-0.0009091538886931419
0.012831354490768	-0.0004247070215466619	-0.005425481457235194	-0.007071598008506323
0.01432068913846097	0.004103494675469532	-0.01657664106444401	-0.007617132302915549
0.02068257303995849	0.03530473197811949	-0.0105003521216485	-0.0064035071658954
0.019480120697697	0.02965271288271866	-0.005930156147733931	-0.003858848018097235
0.01083798806811486	0.0140451803349275	-0.001859228272854292	0.0007342360962606844
0.004300072965034245	0.01295843142465383	0.001821752246364268	0.00909360035904767
-0.002917027921904752	0.006780315840171502	0.0143835093972342	0.01019328953302092
-0.01570729928298274	0.004774332069539547	0.01344565843323003	0.00911257969290429
-0.02643501553838676	2.737285450140394e-05	0.01491813224975624	0.006381905857999614
-0.02127395034396758	-0.01123829688158457	0.01813077956860088	0.003476854489368846
-0.02166438736605448	-0.01290479597419884	0.009332586650393236	-0.0007067656361912778
-0.01289406325919238	-0.01261004089779211	0.003373493284862453	-0.002543990267163954
-0.009375650522980694	-0.008517344579854213	0.0006043292706220194	-0.001787909311683747
-0.001521045960768076	-0.01428884101495421	-0.002767422925475246	-0.005433434863778893
-0.002596440701556444	-0.01177735040904099	-0.003802802646051334	-0.003342322594667998
0.005909699663234207	-0.003673117927625286	-0.005690620027232961	-0.01033300407027454
0.008174688068647271	0.001202507832488286	-0.009977871742259958	-0.008072047836320283
0.01067904521369413	0.001942517067155218	-0.01252587707949348	-0.006993497253523651
0.01446865396623754	-0.004046486906112333	-0.01394036952997308	-0.01139328273471488
0.02088823440978982	0.0002928529189749751	-0.01496925549900615	-0.01063742188970682
0.01864657681532431	0.003588095704563281	-0.006161233716350568	-0.001481638272581169
0.01484803377034094	0.003989325724427192	-0.00551646410470164	0.003822574014627744
0.002154451656960602	-0.0006983541863958062	0.001846846905742861	0.007085284400184428
-0.003421765952428955	-0.01346731374818033	0.008304770354177723	0.0127238606987046
-0.007930821875156917	-0.02212520448470864	0.01592230112373153	0.01507134444266842
-0.01465562895480617	-0.02730722899672341	0.02036869319194991	0.01528283742554966
-0.01706011008326107	-0.03245463494151432	0.01412309582348862	0.01039785026190505
-0.01957859364658039	-0.02690481969927843	0.0116660602084357	0.003280573435829015
-0.01222851995379996	-0.01764477393786327	0.00659387989262525	-0.002661907141865259
-0.01016088044420981	-0.009882834921678988	0.003072055893087071	-0.002980870820221807
0.0005483329975183584	-0.005197180626017735	-0.001757814064568176	-0.008869303529008438
0.008100089228833974	0.004886427540672729	-0.002033395699573537	-0.004185032892723876
0.01236372005508	0.008484296145400977	-0.003568458668789152	-0.002902218355432308
0.01096536546357963	0.01238199475715738	-0.001993621794392698	-0.00403953093426328
0.005341152334652582	0.02133776205910931	-0.00258825366572579	-0.008074929354536972
0.01288803701874129	0.02732547330008977	-0.007266498407162356	-0.01040202202311772
0.01215450451810865	0.03196687171339113	-0.01111201321320847	-0.008743837591630194
0.0173446691409974	0.04976727185215384	-0.009226835455994465	-0.00425406613037984
0.01303472410798694	0.03254560505993814	-0.007917666468934496	-0.0001718700110092492
0.005795812208568642	0.02041926223718606	0.003074741647095483	0.009032934507666091
-0.002344450549180371	0.007162953401711783	0.003479203322008078	0.01180776929088449
-0.006220580825069638	-0.0005191803741744062	0.009968861301102758	0.01107090523857204
-0.01280521283715836	-0.01204725073437634	0.008593941394594237	0.0102897181392196
-0.01696162586811331	-0.01019433655047633	0.01307820652564294	0.01014814642241499
-0.006636690389991966	-0.01036336737880353	0.01223689281654735	0.003967749412098873
-0.004027716045503981	-0.01091530345212405	0.004185279154099494	-0.002548711462996621
0.001071136410619638	-0.005965190141575673	-0.002725771188887157	-0.004230744513391336
0.002413129006626202	-0.001317644207499317	-0.00471034780426915	-0.007292651578452472
0.006574456190570021	0.001657664900698985	-0.006689308217458601	-0.006785332119225732
0.007047876752799651	0.006803879833954743	-0.008356260479023827	-0.006661690617643212
0.01072622234107563	0.005233794689304917	-0.009580829894519105	-0.005211761454308241
0.01029553701318481	0.006256573013347057	-0.01206874679375869	-0.005564035695410616
0.00877690640720313	0.009881699511846384	-0.02005220480098733	-0.008737518985552691
0.01310451224062917	0.008634761402153315	-0.008037295666558327	-0.005480284511244567
0.006574844795180401	0.01715954799605483	-0.01048168125762575	0.004956597901054843
0.001990785489366023	0.01228274045345015	-0.00964504759430696	0.004639278672706419
-0.006089335124496545	0.003588276440721643	0.002182218589314736	0.004528807871650471
-0.01579199422485094	-0.002620741953899852	0.01001937610287281	0.01203521858560162
-0.02012410786104987	-0.006999858783890547	0.01191653224801305	0.01212781819444727
-0.01849978977314407	-0.011295910248065	0.01419728292234379	0.01368757963792405
-0.01436406876822953	-0.008632021300480193	0.01222217929940028	0.007022084715829944
-0.01360340182707929	-0.01548194173573483	0.01181947802890694	0.004810634952124184
-0.001192930216202354	-0.01983674054850655	0.01075412005105018	-0.003731514627014312
0.00373420032483762	-0.018556715754724	0.001173723017662773	-0.00522450014040199
0.004247676874865312	-0.007930169453789425	-0.001681623294478381	-0.006827459596497821
0.008663417821749305	0.00395715477163717	-0.003504155216022823	-0.006909692791541528
0.008576412925102944	0.01014620866334321	-0.01013009923037304	-0.005875554084868072
0.009452510122136449	0.02414700203396196	-0.007223777248081243	-0.006681587167790742
0.005805676174380122	0.02295675347229258	-0.0063282860241315	-0.008712306326799759
0.01595189553588648	0.01831469673120167	-0.01358124986718337	-0.01145566219924371
0.01218979129554384	0.0127547975199401	-0.01563271468831267	-0.007738976791062664
0.006098435156929282	0.007016452538791394	-0.0113583016193144	-0.007490487872461042
-0.007127460163809665	0.0004765684274231964	-0.002449528938149044	-0.001499044025788922
-0.01843842611134758	-0.004068842823937472	0.006333685436437846	0.009240342124503895
-0.02004130787249443	-0.0150689492713135	0.009417592651573463	0.01174524606377295
-0.0201925024576025	-0.0176930711629321	0.01566835559810823	0.0117644329714667
-0.02559494615019994	-0.01997834165027055	0.01422202491635531	0.01010198051449802
-0.0204290262518054	-0.0222018842504732	0.01782876663073095	0.008636146399330361
-0.01682816067881165	-0.02220574046768241	0.01105250885441209	0.00533350896363999
-0.0105251257786342	-0.01425262746714832	0.003759974850145878	-7.101550865956299e-05
0.0006293408608535868	-0.01324178086395602	0.0005213928325587531	-0.004289143300175892
0.0083563111615652	-0.01187373187795996	0.0006582371073118191	-0.006537380981019083
0.008536452453855245	-0.006681011644913081	-0.001879547321788792	-0.005843645047056811
0.01177605320232902	-0.01044329340397896	-0.004164456910607055	-0.004670609076856948
0.01605219026991312	-0.005288763027630821	-0.00871331378214712	-0.006423557754254641
0.01928259719973075	0.004487539181907828	-0.008807977917450124	-0.008947015096610523
0.01783929584423827	0.01851634646718831	-0.01132771393316754	-0.01120393239571643
0.01615807470200202	0.03165076245184076	-0.01795694446894517	-0.005745883230741398
0.01593403822930508	0.04067805590941752	-0.01394162015009021	-0.006155258242112322
0.009411838733797903	0.03198744960251996	-0.009900451331508164	0.000368925658739181
-0.002743215355682107	0.004163178036959114	-0.008435689866760217	0.004987289730408189
-0.01234461198925619	-0.008108027621148326	0.0008736968457302088	0.008895802101927062
-0.01429831556243326	-0.01359865350712514	0.006774425805502357	0.013588016100066
-0.01488091406533783	-0.01651895872602168	0.01045191963597692	0.01114260980882187
-0.01487009584875567	-0.01584215608529737	0.01325524139566318	0.009118035825900591
-0.0108593862874851	-0.01037193792732142	0.01337165994172197	0.008103214223105198
-0.008281076162224305	-0.006091952193144565	0.00777295590167586	-0.0006533290812040021
0.004668298356665413	-0.0001246192254356839	0.006525474683202739	0.001312386018700466
0.005348362983508608	0.004371207642449814	0.001135928615660539	6.598673494331072e-06
0.01121720570040245	0.00714750923295389	-0.004023330588977674	-0.004102103825977376
0.009215661437882869	0.005919556210288592	-0.004499661627801649	-0.006063051596256482
0.009702307965199877	0.002520440317999348	-0.009315434273650263	-0.003994607788592338
0.01243433118914028	-0.000838718854092939	-0.008028740973284348	-0.006207719293038042
0.01581179640897681	0.007934687005612496	-0.009507921119060665	-0.007728903934740025
0.01409901759813247	0.01499643453229637	-0.01197315190912517	-0.008022682856752391
0.01021208810993781	0.01545559942615858	-0.007456920177339565	-0.00439096721009593
0.005383391592743758	0.008927518095824639	-0.006194214105814944	0.001255350342272322
-0.001331792384068221	-0.0003063184827590121	0.0008688983002050073	0.004264580756972411
-0.006830125631135505	-0.01301346381896193	0.005069058470167854	0.005903768039323364
-0.01542354133977259	-0.02188818194902325	0.009806686808806054	0.008457688818168671
-0.01600216172241304	-0.02271438621596012	0.01492845118982704	0.008796412361386194
-0.01580716040255725	-0.02249900746858754	0.01329111458902013	0.008099116285553643
-0.009420445647411763	-0.01882261573331294	0.01202886742801601	0.004189576637619417
-0.006563266838524102	-0.02855410032436515	0.0082242263407598	0.002365816461915888
0.00168341116396795	-0.01777084267706894	0.004951542419843982	-0.001572210506760596
-0.0003601220921046053	-0.008129643955475167	3.180852841300086e-05	-0.001651816620514738
0.004108358356655002	-0.003859588269093097	-0.0008174690248624522	0.001135715127808374
0.006418394120366878	0.004970834708920876	0.008547261760130383	0.004136018845733266
0.01048640183265744	0.009519128048002425	0.001231802568028661	-0.002511647569828768
0.01349441262307894	0.01464038591999926	-0.002386259871043833	-0.00282829336038054
0.01853609494187647	0.033871292101356	-0.00187667212344838	-0.004925558510074438
0.01680845303248244	0.03673890478951485	-0.00315386221379337	-0.001845126885876711
0.01299324951907015	0.02772786976001394	-0.002601055137777843	-0.0001284766771048955
0.007346988087761449	0.01545311572221043	-0.008468795795367495	-0.001323463928538272
-0.0001590708022281161	0.01269391328732112	-0.009832395793134097	-0.006162696694106644
-0.01482217712786624	0.002686023734896332	-0.01124997837946859	-0.007316186724134802
-0.02374044514709844	-0.00296359812997364	-0.009653865795066991	-0.005916628988260011
-0.02681617676857417	0.00114937837733306	-0.006909231853259913	-0.004578702639932565
-0.02112799192953614	-0.007495049503518638	-0.003420241438429904	-0.0007343996153827233
-0.01487802457294894	-0.01206346556582141	0.002767816828590984	0.00567318147228788
-0.01036730827463269	-0.008440148846485378	0.01231234087014588	0.008923953891481649
-0.004958343390101936	0.000408384336608732	0.01319930442076234	0.01284919587422012
0.0001829825774350289	0.003384166597513626	0.01479254163869908	0.01178259310629447
-0.001352140896777561	0.01405610037199116	0.01455161114584374	0.008346696318891919
0.004689530502196434	0.01791222602397164	0.008919279458426957	0.0008820763372868334
0.007662167389289345	0.02263516666545545	0.005240642989672167	-0.004628406597376991
0.007041461214895896	0.01505526489714859	-0.002470289066530496	-0.005917551665097089
0.01004271262685457	0.01293198297554823	0.000548467758228315	-0.008946834228792912
0.0125707337790618	0.01016161270326503	-0.002756505426215619	-0.003064060286749876
0.0105245041101808	0.003618394653241935	-0.003745502909451811	-0.0006008123344927672
0.007433589558187629	-0.004298371081490215	-0.002992861107475352	-0.004165073901212169
-0.001707775658141636	-0.01099484103144431	-0.01236806721475147	-0.008651134314061042
-0.004217332998605213	-0.01931272646841093	-0.01508136538935224	-0.008569109463317862
-0.009335286874933409	-0.02660006270785905	-0.01492496511239384	-0.008960918964951365
-0.01362254945221799	-0.03553508844853924	-0.01105999445243282	-0.002360298573013835
-0.009345647986593488	-0.04267665715952606	-0.004673652533587719	0.003403985695524941
-0.007037572171150523	-0.03697058548091316	0.00328595193361287	0.01027063523422572
-0.004356509603911443	-0.03116653334141093	0.007961597546723315	0.007933631023554292
0.00029661906199163	-0.02212143509497784	0.009005144444187367	0.00819787454241268
0.002574346066339352	-0.01985839030478034	0.01169453641011046	0.007195827061411687
-0.0005765338018726767	-0.01242805865681282	0.009473157386011306	0.004691636646119273
0.003839678677915324	0.004679310012402261	0.006777807273722619	-0.0001046917439194722
0.006705465191013516	0.01218323881015988	0.00901780121826783	-0.002657341195551863
0.005872303260513518	0.01526982630270589	0.002716977040556372	-0.007300481075245099
0.006889832580486106	0.02827493924447674	-0.004314942293253824	-0.005012399318027887
0.01122520035186431	0.02776267010557282	-0.007616287046527702	-0.005399395520110814
0.008013558180636314	0.02583112759938132	-0.007425664594794803	-0.004530611774161713
0.005107951317635884	0.02966776462711381	-0.004860645497901749	-0.002432322401680784
0.0002963493986116479	0.0270728022868448	-0.01155469040082761	-0.01042656643961813
-0.005192601303169423	0.006784794455731763	-0.008897358085357741	-0.008743647587813487
-0.006974536390908459	-0.003464944902658124	-0.007058444683714993	-0.005668227593445418
-0.01301633501722907	-0.007269276680320192	-0.008168753245967874	-0.003938267712279992
-0.01797574650983818	-0.0163067242967683	-0.002961640686097546	0.004505686320588667
-0.01443366277405369	-0.02017031186014159	0.006016161507949252	0.008656027913454673
-0.006619698842105591	-0.01841532332395331	0.01268736034106215	0.01286112306234202
-0.002518969491818277	-0.01883954747296914	0.01240159615309852	0.01025122159393761
-0.002038504862432782	-0.01148886378365537	0.019317081132337	0.008956380876526109
0.001735770544227429	-0.005725621915899055	0.01333696546964995	0.009228812020695297
0.00516301527637225	0.007128934059502782	0.007619911407118446	0.004782051429924974
0.01122774397367388	0.01094936357436074	0.002525394284128612	0.002922591407001851
0.01365064874333656	0.008042135900027189	-0.004133570448858542	-0.005732639929960418
0.01404610666916182	0.01992044260572823	-0.002598669691993527	-0.007397896514297447
0.0181239256127558	0.02656922862478109	-0.0045440713223959	-0.005607027112344903
0.01663031811506403	0.02697751581338811	-0.01015040678144946	-0.004773689830240872
0.0110796452692041	0.02309975857897037	0.002750972544458604	-0.001657738502259743
0.002709687593610277	0.01571814406209266	-0.001942853407511895	-0.003297904918306189
-0.004565735643067349	0.001978393702982697	-0.002807774365372825	-0.003377542129146472
-0.006909266517519642	-0.001761946144862582	-0.004444013569282397	-0.006566642591221424
-0.01392903072666341	-0.01400183753539976	-0.00746017774003789	-0.0005719490095368741
-0.01269847395362486	-0.01796574686731858	-0.01246969580142235	-0.006662179710694165
-0.01073578389531443	-0.01526106703614257	-0.009579238841124615	0.00133812742915599
-0.007159984730070414	-0.01541758799654666	-0.0105273797047008	0.0006197418664805697
-0.001203053623991125	-0.01012425540959752	-0.005417626556896175	0.005534594035148
0.000354873760728579	-0.01500995037543133	0.005406054855295573	0.01408219463194873
0.01018879699048044	-0.002370100492055466	0.009026993605698362	0.006008237961488219
0.01228998146096538	0.006107208041834108	0.01032960440848418	0.005969726958001361
0.01440432474165436	0.02251527746325314	0.01011412515335845	0.004371357714073919
0.01715567161548596	0.02263843038141225	0.005569744086758682	0.002992433636558081
0.007104004597535207	0.02167953470078258	0.001998473102845687	0.0006432954701379562
0.001378042588922935	0.02492216707696037	0.002464226759481428	-0.0002227185636895434
-0.003931675419469868	0.007302280174906869	-0.003896899895508627	-0.003493416837379226
-0.01202916610881788	-0.01331420672915598	-0.006296594678324791	-0.007725219404308556
-0.01055353908192229	-0.02501707009088639	-0.009839289687914147	-0.01107934999312551
-0.01081742672636804	-0.02451657683548338	-0.008236331384701364	-0.007473813670137846
-0.009057943038058082	-0.02210458292610666	-0.01001764671034672	-0.01125496105127357
-0.00174399745437146	-0.01997642870692708	-0.01142643732251285	-0.007334054429607597
-0.0009935917401011447	-0.0007044015303989359	-0.009931096290821577	-0.006034182244848449
-0.001166089474831883	-0.00265277746366883	-0.008112296925363759	-0.000473907823081765
0.004413340638395153	-0.005322833789337889	-0.005068626501035933	0.0006792930860305225
0.0006753434840197076	-0.001150179014824316	0.003329897827663187	0.006761868987764752
0.002023746233614458	0.008365840247357891	0.008202550533172212	0.01077998728167101
0.007090040963538741	0.02579470406570981	0.0152719098392155	0.0167096367304473
0.0151495555789907	0.02107781595363627	0.02058018884568593	0.01123358390769741
0.01547695637218133	0.01859404917354628	0.01586003859230613	0.01082764977485356
0.01065016234099185	0.01258774954134834	0.01462426829189974	-0.0004913422521194286
0.01017787548144642	0.01143124258036368	0.005352285966115822	-0.002617732799934795
0.0006554079889630974	0.007730722693284362	0.003095755414668016	-0.003524957526073143
-0.009830669528569744	-0.003537736271206837	-9.69563133392013e-05	-0.006057386181303331
-0.01923931909559765	-0.01764788525755923	-0.006132890317470095	-0.003588817181911571
-0.01818924875852301	-0.02268158548620893	-0.005744546259574323	-0.005468093646050162
-0.01424976242998568	-0.0269353720470815	-0.005376349192112845	-0.01088282700911088
-0.01037766413589051	-0.02476620383335016	-0.008998537179072116	-0.01095358454671738
0.0008030502459705209	-0.01956286098950723	-0.01427432168407013	-0.009819073570760469
-3.980803148176428e-05	-0.0176616616994648	-0.01187922613891552	-0.006434912858629696
-0.0005595288063244016	-0.007416382071996984	-0.0099342318419379	-0.002440500758284099
0.001103322929429908	-0.003979135767513917	-0.0002650160301081899	0.002446970419171506
-0.00622699991186391	-0.001818295786125227	0.003397276421745229	0.004857023515492542
-0.00579631713852041	0.001407429973664241	0.005142542670270096	0.009556074209264782
-0.004941894588678067	0.009555121936808098	0.01327460866446038	0.01057881925307836
-0.003354827786020648	0.008217707919413871	0.01437121275105328	0.01119373274887222
-0.003719855807770676	0.01132013679444803	0.01397415126316732	0.01110302137899985
-0.001371175992873665	0.007701076114016779	0.01026509863582391	0.003018402913323183
-0.008109903763051748	0.005209036787643485	0.004232126545292192	0.0001040932324095685
-0.01079700325718531	-0.001018873026684573	0.001495287242758442	-0.0007190458202168005
-0.01178152615534714	-0.004683294850054999	-0.0006679055706208992	-0.004080655905322958
-0.01540623227187229	-0.008138192020082003	-0.002219641277580918	-0.007470634835136651
-0.01321535835227785	-0.01312269666448147	-0.006155367181175799	-0.001068172723874819
-0.007262668503725866	-0.01167153561218667	-0.006334724511758211	-0.004113639360595786
0.003267698305370812	-0.004846867389448395	-0.006653551499024341	-0.008235438562318512
0.006055432625304135	-0.0004761642112884572	-0.01290363906491692	-0.01178126929789485
0.006475927004053672	0.003374462466266064	-0.01696918974249034	-0.007673885542365888
0.01094791283981557	-0.0004778080221287414	-0.01081539810093999	-0.0003931960445473326
0.009987075876198704	0.007680461953167	-0.008717022339725202	-0.0004153494206860072
0.01481001367278434	0.01489898773300485	-4.057991338938685e-05	0.002808357465511769
0.01568823561831077	0.01540914437462948	0.006061493742204704	0.0106221081839121
0.01305580580402825	0.02037546490716614	0.01225926319910618	0.0107833342053891
0.01622002965289386	0.01491624064304412	0.01332434353846951	0.00840404986573493
0.009505503628953738	0.01736530616673008	0.01845175996997943	0.008302609850722249
0.0175416469358118	0.02066267527810725	0.0153007349607446	0.007655052597063663
0.007846690832554355	0.01509203148908738	0.009867826818949878	0.004383284699753714
-0.007274075057590061	-0.000692882340442269	0.002784785324454435	4.640498147361654e-06
-0.01140911108669006	-0.006373562843061929	0.003256725841119466	-0.001356525225319966
-0.006710702515467981	-0.01530117780612267	-0.003082069681840205	-0.001480721340766701
-0.005618543924957024	-0.01652488894266571	-0.003798218051794476	-0.002770198403083231
-0.003891918155805031	-0.01441265543456532	-0.006546117599696813	-0.002197967282998216
0.0005106254926821919	-0.0124349539125096	-0.01067088212956747	-0.004473933946127799
0.00409178324443551	-0.006006406449167146	-0.01677148304894698	-0.007934900905334564
0.008554026191149682	0.001195063648459633	-0.01290267254084152	-0.008238112216992617
0.01220308155014113	0.001602702793627369	-0.009849557442355618	-0.00315906200805844
0.01088697039441902	0.006477908763012708	-0.009718953365513578	-0.001998051990775952
0.008279630810785388	0.009711780128107261	-0.001548440128273901	0.006134793623857512
0.008678384481099704	0.01847314741388061	0.009651271454887155	0.007935325434714844
0.01457230599869066	0.03619818621673024	0.01727874146903845	0.01110644548191343
0.01928484541638658	0.03581503536547014	0.01190516386646473	0.01304547521945883
0.01227856759216423	0.01854842662448586	0.01332304099310496	0.00965403037873527
0.009281602785732269	0.01078356753616011	0.009069628603955932	0.005497725901334169
-0.001500334882973139	0.001817205782102304	0.005939202710285208	0.000325596322326172
-0.01061410320628331	-0.01374793822745631	-0.002706805769184402	-0.0008327515294364657
-0.0164702905348014	-0.02505781672027994	-0.001041871739700648	-0.00452622135809011
-0.01903663621978498	-0.03479550127642559	-0.004248307434016416	-0.00349489909658765
-0.01881374384964775	-0.03831645693354726	-0.003781945093068113	-0.004762341686681577
-0.0149474228161498	-0.02933061063132075	-0.009463302054609161	-0.006594827462131575
-0.01261303664195114	-0.01950770546852188	-0.006984739437698039	-0.004736770481233349
-0.001814805355965175	0.004259102529040189	-0.0100549504765714	-0.004744330955629817
-0.0005393862159371102	0.00320782209224433	-0.01265378321559551	-0.004740404986836183
0.002240277340394335	0.0007856299319097342	-0.005961595412105034	-0.002120800683466467
-0.0006614985616682347	0.003398262130429815	0.002559766339684508	0.002701207375928487
-0.003371246399617446	0.01187184050271314	0.01090744660168112	0.009895228127024399
0.002403975551153832	0.01452074711878194	0.009544937149506907	0.006489987615794487
0.01225236375727957	0.01829108427793288	0.01575079234778928	0.005537592386403053
0.0123529277616373	0.01667516166657539	0.01084758414910609	-0.004748907451393695
0.01202489422999801	0.01441545948991841	0.002939214614648069	-0.008226750102307454
0.004855483824930743	0.009391423058865535	0.002234724663164862	-0.006102160134022839
-0.002686178059166568	0.005083427761912603	-0.005163738304236296	-0.003430852608378854
-0.008797940525416005	0.0003833781109968648	-0.007484901204613635	-0.006753799624636132
-0.01895043446760221	-0.01684228015292571	-0.00448188797924761	-0.007431311279198723
-0.02225969889797262	-0.02502982093944043	-0.006020531595198928	-0.004847165769703155
-0.02130317403573138	-0.02504339186188733	-0.009965315492039196	-0.007999176606172539
-0.01569471613213992	-0.02324736975569402	-0.01150759442393134	-0.008588712558223643
-0.01029969047080479	-0.01587152127233036	-0.01388768950280976	-0.007446894951247545
-0.001058615478546153	-0.007489901666436929	-0.01069634636704475	-0.004662686939089175
-0.001170605324205473	-0.002841942771649616	-0.007280175815404408	0.0004495467512254368
0.003466463030603524	0.0007168446144819853	7.280895497078967e-05	0.006899037785336781
0.00279988613755071	0.005713434352205999	0.004576148516651261	0.0080255759440664
0.005571494091276444	0.006760676176913945	0.009633818203145107	0.0142891654279447
0.01050955928807841	0.00804887757911469	0.01634979034397409	0.01105666343127378
0.01512643661309778	0.01125025790412156	0.0175530609651507	0.00879634917193629
0.01409496079114754	0.0122139411182324	0.01401178461528857	0.002584558790255185
0.01466117174752732	0.01783592635112268	0.009829119404745802	-0.002790347413351114
0.004769004858860277	0.007527687487274363	-0.0006947410774049759	-0.002321199236910905
-0.0006173210566196481	0.00135971132803303	0.001498856403134166	-0.003036662313842272
-0.01145076058458389	-0.006607000041814693	-0.0008780349668251563	-0.003673059082058625
-0.01720168804502214	-0.0150586700915559	-0.007810753195987386	-0.002111189117106
-0.02290658520252537	-0.02062882654266284	-0.008662553263923418	-0.002448343000823406
-0.02499846775140468	-0.01807588240887614	-0.00823193768127156	-0.004856318479406343
-0.02177655294903593	-0.01666654197101569	-0.009965040404826738	-0.01043278393786974
-0.01284971130149527	-0.01052276059790985	-0.01409023128364556	-0.00807846368399532
-0.005672113555936274	-0.0009760759556731748	-0.01312829870783832	-0.007788403630973302
-0.0008407936098868987	0.001826843157072997	-0.009235283777723651	-0.0008231892720840754
0.001416380359345729	0.001157922467849675	-0.002210271363699822	0.006862059696709472
0.009222291711250975	0.003922836021547722	0.001622565437476909	0.01087727222690549
0.01056760608142689	0.00755378463152988	0.01006119357647262	0.01159682879327795
0.01357438934666206	0.01224921717140146	0.01667238794694335	0.01187297489420141
0.01432648544479511	0.01279549280596842	0.01923091800640111	0.01100723700810689
0.01637808522083727	0.005904181061253061	0.01813032886686518	0.007969304384946096
0.01359983664469339	0.008432943586694372	0.01057340947263853	0.0005487684373361133
0.008232950921791878	0.001131943458553294	0.003915263029724505	-0.002211026740822081
0.007112926074353259	-0.005753847791789462	0.001147813489236446	0.00146854785485848
0.002244343291879004	-0.007814509938402048	-0.005654301319940507	-0.002662717584232173
-0.006026819488334697	-0.009665362971835222	-0.006918012860993149	-0.005360744720168896
-0.007746395191498697	-0.01045252276417895	-0.009433027164921622	-0.005977050088162569
-0.01382808212283407	-0.011495442124867	-0.008373977127399269	-0.00598800974091712
-0.007986458232014534	-0.01256062277708385	-0.009132539875945526	-0.01013660463909078
-0.008757819393016744	-0.002564607029042153	-0.00572848131881168	-0.009947361084175972
-0.001012083875404455	0.00328382743058138	-0.01019761258525323	-0.009798517174313003
0.002474369587401442	0.008023733580482173	-0.004543201547174706	-0.003891980815946301
0.007090494487433698	0.01143550613987257	-0.002778872798787358	0.003456338379740079
0.007275443274559226	0.01203489205141842	0.003483025698396806	0.009029515503670881
0.01101775961918668	0.008838200935357497	0.01005906713870091	0.01377980237379515
0.009887991038533684	0.01251037277520183	0.01024630907769628	0.01168978534670812
0.01515909113705246	0.01346086161961331	0.01666834584124504	0.00888709146932589
0.01281292520453983	0.01403758971785095	0.01329528482067839	0.00531340782898761
0.01142148874438088	0.01359835916900587	0.0100151061098784	0.002763171929258537
0.008589179912753771	0.01318570700723688	0.00373647436460133	-0.003425637748698196
0.001007525588493274	0.01237073866815717	-0.0003435866441380867	-0.003107206239662497
-0.00145606940170124	0.01118744546987727	-0.002952186103509292	-0.002279192915527331
-0.01159718820436268	0.007458978895877029	-0.007545491637297556	-0.002736321360129932
-0.01119586616408887	-0.005520368204868849	-0.007292109953656358	-0.004435681898184245
-0.01098085567723039	-0.01495599121690965	-0.002085614991657973	-0.004798561533958582
-0.006640680880952494	-0.01845114543330055	-0.01191818584656681	-0.006443980152239204
-0.005189736881210636	-0.01565821034343735	-0.01058263318251684	-0.01145464905515247
-0.001956879243792102	-0.009427399272210922	-0.01276880816823855	-0.002315961219505686
0.008155776520448837	-0.009534759740576507	-0.006632033553127402	0.001063868666377539
0.01003731882768316	-0.008698232384750749	-0.004778705794887284	0.005940703622906945
0.01007862317823204	0.002382370092602706	0.005319109709858988	0.01021132063789263
0.00926206353689777	0.009074126964847284	0.01028246453329647	0.01586971417330641
0.01052921809810101	0.006370494323570156	0.01122577018487138	0.0112986545292773
0.009904106304584472	0.005174095325758056	0.01027581581206971	0.009323986050566462
0.008940167902949025	0.01341539308684228	0.009461107081574077	0.002358238186658193
0.007253596805171405	0.01114869696646722	0.004670690630680058	-0.001196340612519025
0.00486034863324804	0.01000830405428004	0.002619970845350137	-0.004070012743333935
0.00225504364559918	0.0009756781559285177	-0.001274909458112399	-0.00317601348557393
-0.006838165824830798	-0.006380483395480987	-0.001244848476457225	-0.005499465973730036
-0.01333836879889605	-0.004321069757627864	-0.006417938730062103	-0.006639323198646402
-0.01366342395563312	-0.002070922789178009	-0.009148082389436667	-0.004643030505043936
-0.01296202665569962	-0.01396213053773985	-0.009313324077731245	-0.00171558543667523
-0.01311290674179448	-0.01584943765971445	-0.006910667386906216	-0.007078693176458186
-0.009551362155500656	-0.01479562286272695	-0.0104326662375199	-0.009562656564708765
-0.006951858378192901	-0.007888470796494632	-0.01170100771479851	-0.006826974435803808
0.005629977524211379	-0.01051789184869749	-0.006976015196325154	-0.001082078312259803
0.003749649545534339	0.0016041617982165	-0.004789454141215583	0.001216469147390029
0.003639743633656945	2.121051594705424e-05	0.002480071868512587	0.009298023976513277
0.001980372036380993	0.001280292833403422	0.01104491885102123	0.01443148113161938
0.003332162415988271	0.006575316224164038	0.01299528132417352	0.00937743671308253
0.008413313901541569	0.01109869970876451	0.01507589532853678	0.006986876773686435
0.0111800417803633	0.01553273017915247	0.01314212597663901	0.004416253611024782
0.01209478387148742	0.01721847751586271	0.01123584043252016	-0.001199527205753147
0.008152180682828625	0.01096696009504202	0.0003952914877413006	-0.004239214316545215
4.744342583875384e-05	0.001906725562584311	-0.001088712299454107	-0.004565164051198949
-0.007017102171750664	-0.00181126776397578	-0.00456930434527741	-0.007492350059468378
-0.01274694821163001	-0.00289558225485002	-0.008817835623485924	-0.008718572843949217
-0.01173472324524923	-0.00893033225774612	-0.006196929206465647	-0.004976841686039925
-0.01869865380764047	-0.01938885682502973	-0.002669570727474431	-0.001230229207661514
-0.01569147539665842	-0.02187601424671804	-0.008207401153423053	-0.008120890302168948
-0.009281564110076277	-0.01937479759871188	-0.0119584893111097	-0.009132763095822012
-0.004562570325569957	-0.01264591007981108	-0.01466036200083591	-0.006555203780959438
-0.001524822792092962	-0.003328059229461929	-0.01059538271720241	-0.003485293415536111
0.003091903576149015	0.00125347378080263	-0.0008882489783826336	0.001718150200037406
0.004136987861277275	0.0003798031412163675	0.003229888816823576	0.004077723341912007
0.005494692890674602	0.001934780097370088	0.01488186990858865	0.007496372313906746
0.008520150864224616	0.01278774514135734	0.01929625427863022	0.009764375484479892
0.009301239639404177	0.01865357701508531	0.01631508917477973	0.007622205477921532
0.00964603052049319	0.02061861804576607	0.01997760201273175	0.003222535244232605
0.01318668637562598	0.01762939075533192	0.01208787820938442	0.004098721405449925
0.004504320756271486	0.01474337391319314	0.004086321145127135	-0.0006378207680360779
0.002359493574566361	0.00349939130554467	-0.003254500940882802	-0.005086654903927085
-0.007023351829700485	-0.003978800574176243	-0.005117257680464265	-0.005424118635097471
-0.01134395670607649	-0.009971242343760562	-0.006446850670752291	-0.008465195060387037
-0.015370033141709	-0.01170973855242968	-0.00276074172217327	-0.01005178324587836
-0.01591791094687684	-0.005511403841069796	-0.004734706679468409	-0.005077049252146418
-0.004649046681169468	-0.0005455487616368553	-0.01060740401440293	-0.01055973896279551
0.0005112879186282939	0.007930942389113321	-0.01596097716625827	-0.0107580810292251
3.397687466356829e-05	0.01138873270356499	-0.01254085641528949	-0.005597670368422314
-0.0002463588987253385	0.003048440704061127	-0.01286496359235561	-0.005024840782273102
0.0005029701308599708	0.006292475417248488	-0.002311323441908451	-0.0007371066915254582
-0.001585948627440977	0.00815469191631598	0.00388268938439775	0.00677717711518301
0.001321671034575574	0.006763895077681261	0.008281638394118929	0.01845875401552867
0.005937936009625821	0.004395416859073843	0.01454959648624541	0.01465246583732962
0.008093518549514454	0.009207724971024173	0.01398525652293423	0.01195229311427975
0.008625882919519667	0.006046322574112024	0.01444605918503412	0.007977155629450852
0.004829792040674904	0.002036866137239147	0.006503972747579972	0.004434457316958124
-0.002360748581942965	-0.006415957754688697	-0.001225104475448731	0.002588073567486768
-0.006666007594938257	-0.01803234290902326	0.002737454612102607	0.0003939557921525004
-0.006610706734326023	-0.02279846792101074	-0.004904801994747554	0.0007713559085976574
-0.01399906964955363	-0.02581092880862346	-0.009264879461121665	-0.004588604176141018
-0.01464530876658368	-0.02676001244800993	-0.007425244206368408	-0.004980700545866381
-0.0128698272283953	-0.02715871702869557	-0.00822956658257098	-0.003293344880800256
-0.008971918024298246	-0.02225646629239091	-0.006161157876837303	-0.01060799364526045
0.0002572470323172592	-0.01109258851550102	-0.007248535463444104	-0.008575760331509245
-0.0006395737039138079	-0.002004791962234792	-0.01182384512229099	-0.008041058573103173
0.004544736516615479	0.001867603275981553	-0.006304229443821279	-0.005065918211813556
0.007203872955565252	0.01129011198758231	-0.001300827414425082	-0.00220876970417311
0.006074832084093504	0.01048620062992697	0.002756423939138859	0.008596100259996825
0.006873468704524574	0.01268696602662012	0.01240113195682726	0.01345722249859556
0.01060313145005801	0.01938516490100546	0.01292892380541997	0.01426490241875377
0.01605166182196313	0.02667751133311663	0.01955123394294648	0.009473180869307938
0.009244991365026635	0.02990370867864122	0.01504269308186359	0.00995832807272732
0.001387122557606109	0.0220648355580425	0.009277103384907373	0.0007545521943349884
-0.00232735853697293	0.01283383659315007	0.005898340911461752	0.0005876485279955581
-0.003107541371287576	0.006408248414867967	-0.001457599126174499	-0.004590029422445885
-0.006931614446928022	-0.002151581677607136	-0.004167420589733819	-0.001857271751635197
-0.01698676662631085	-0.02190180022251389	-0.006853172499592989	-0.002507924385450482
-0.01499774280340908	-0.03287106780213908	-0.0125134397202166	-0.007413160902175707
-0.02008224997810459	-0.0304860213630138	-0.009950363355045948	-0.008286315100618362
-0.01546685927878643	-0.02641058374339293	-0.01217868814977101	-0.009115959479855591
-0.01053373348534271	-0.01773616012932534	-0.01347036137635156	-0.00998136734539855
-0.002369463164926333	-0.01234105757816341	-0.01147069068959508	-0.008367686814436576
0.006817198962595524	-0.01068006229014488	-0.01363406461745175	-0.005075126769488639
0.00584258408506903	-0.01182054872245307	-0.008439860708127011	0.001146528891037313
0.003581157732233954	-0.016333297489174	-0.002748798739916869	0.009923583921186781
0.009442870057341311	-0.01026696932233419	0.008098469615653105	0.01593248943206377
0.01647946456715043	0.006981843174993111	0.01760273280691104	0.01647539656916318
0.014020904403919	0.01446843766022172	0.01335024658411055	0.01738868914834225
0.02123029134146613	0.02176964124294213	0.0139507234928136	0.01273117389289801
0.01718117791858025	0.02397426868296849	0.01095773677617634	0.004977931347791125
0.01533626985630448	0.01661348787962323	0.00716128046042485	0.0003493691196732646
0.005524760585691367	0.01552785386515041	0.000176305336817932	-0.004379816880827562
-0.001062187350151741	0.004060794957585287	0.0008873392640922042	-0.006937294025197254
-0.008202391724398045	-0.002992540814527208	-0.007069903908980957	-0.006731031403722203
-0.005237363882354951	-0.01095714184995263	-0.00362521493345811	-0.00423453893211188
-0.006295522403819075	-0.01333619056043091	-0.004536331468186546	-0.001468800466941953
-0.003300761919072185	-0.005309513316553265	-0.004522773000696186	-0.004234958468770087
0.003312503386240354	0.009485942519635348	-0.01200758894357459	-0.005202456373583335
0.006025145986409035	0.009973664595154192	-0.0144695822120156	-0.006776375962015874
0.003445621573660689	0.009887743592469762	-0.01286774086608017	-0.005323039371888341
0.003852180868010563	0.01351876670835937	-0.008146624562773925	-0.00098849875353202
0.008455092564484909	0.02963564590255083	0.0008030963583997105	0.005002282854816211
0.01086703941806782	0.03961900703586289	0.008444738860064215	0.009585732445427934
0.01585949646156566	0.02607345849583353	0.01439077175398761	0.01513274310887506
0.01830430948057736	0.02339839167207749	0.01515139077623382	0.008217092184835127
0.01441199443337026	0.01826442313319763	0.01908722998431653	0.006530043743615795
0.007148893311822838	0.01142250600719175	0.01068665809336745	0.00213112796252742
0.002202255387455375	0.0004151643748540881	0.009577036528527589	-0.0001177803071707455
-0.01082454308831262	-0.006418278105758115	0.001858666422523309	-0.001975860780312823
-0.012531201407741	-0.008022794941352839	-0.001728979246968299	-0.003272269080282462
-0.01611125013907152	-0.01083134119134343	-0.004863930719132998	-0.004383448639470299
-0.02090254815136174	-0.02274930531457758	-0.007625603069067877	-0.0118901090027012
-0.008953638813553936	-0.02435637902463115	-0.01029829881179797	-0.007818600189096312
-0.00465622126424957	-0.03334257622116626	-0.01128294148530219	-0.01302978637964522
-0.002080547272199672	-0.02591182097996099	-0.01280325808744676	-0.01169872021250015
0.0009255035016703064	-0.02407558946244449	-0.01596719937986837	-0.007871082549119942
0.004528176745315805	-0.01247903734977572	-0.01400652306680351	-0.004654355630412853
0.006030348705408079	-0.003067477629237783	-0.01171205075146285	-0.001349592495806472
0.006371158436264292	0.005365817516527932	-0.0009401851145556006	0.002438262426321169
0.006994154253493527	0.01763751354196312	0.009009463705417437	0.007323907639281311
0.005810164486506885	0.03597843652672281	0.0182193757090886	0.01089449175235993
0.008735360916321213	0.03940880844736322	0.01959332701225225	0.009760672740882164
0.004721491047766039	0.03821304028184677	0.01816746603427506	0.01101462968193317
0.002071807991516684	0.02664771371255711	0.01668168890089795	0.003903518277893701
-0.005207521474760733	0.007071740122357475	0.007911913120030027	-0.003655458184296335
-0.01215905271520319	-0.0101798427473198	0.0036657784587147	-0.002441732480460904
-0.01785874354003016	-0.01713426795990044	-0.001159987403823625	-0.003769142433964386
-0.02128862360391436	-0.01996123276028757	-0.004347988224136352	-0.009927887715727711
-0.01723681242403236	-0.019222539393237	-0.004099197140649402	-0.009290318950124202
-0.01139885406782867	-0.01732058058868444	-0.006885326986731939	-0.008069157699718679
-0.008426191082456218	-0.009067095301038599	-0.00428962030344075	-0.008016554411303828
-0.003660941155821163	-0.004420633113388149	-0.01509278477222545	-0.008728721918488657
-0.003156844742387127	0.003405265517991677	-0.009580719973102702	-0.01125059073398695
0.003093502525996826	0.005102586012497803	-0.0090806078715631	-0.006223848563891613
0.005652286384849837	0.00919071907579461	-0.006077597710736444	-0.005883484384333251
0.008341239922787291	0.01334281342611602	0.002107657801746583	0.002692811211821064
0.008532983309682227	0.01332730130152527	0.009567542566519864	0.01240507497199995
0.01242464544678971	0.006583638313454446	0.01310179930502543	0.01242756840549989
0.01864466463077706	0.004898529810786719	0.0145770331282597	0.01181008729089642
0.01095833315513751	-0.003385230292844636	0.01587786679370708	0.009424542928529648
0.00665849027685315	-0.007818830018588673	0.01304363036646895	0.004620277532096406
-0.006108647137737129	-0.01587072043661478	0.006759511920617652	0.0007774238918865294
-0.01484541120140572	-0.02122939158419291	0.002049160092559744	-0.002567171140489748
-0.01705130790712913	-0.02810116572149122	-0.0007710444931325342	-0.002036648356076958
-0.01979266124194606	-0.03243273527498742	-0.007271016712968105	-0.006631401620635139
-0.0205661076588926	-0.03642816928841734	-0.005106175122401047	-0.007770762356839988
-0.02048027760571697	-0.03331048944239943	-0.008039736850160033	-0.006558433371153184
-0.0116532858337426	-0.03110772749762303	-0.01310732275702826	-0.004367820071744296
-0.00962229531041311	-0.02143197522984001	-0.01429790482113206	-0.00652798827774878
0.0004589439127522233	-0.01928097337740785	-0.01442447033494134	-0.003754041210073008
0.004798074698523081	-0.01917933822677335	-0.01137998260945377	-0.002440144428592295
0.00724211155052707	-0.01405400791721052	-0.01142769100733154	0.0003599257522766545
0.004370510246516808	-0.004532633143182132	0.001240667697868124	0.01072982818840606
0.006724604823753882	0.001968036088086451	0.004114200842705763	0.01164355185367602
0.01047533823994374	0.02089564962831752	0.007402793135071879	0.01409657807207028
0.0113614246507063	0.02306392843705209	0.01034692176471947	0.01949332598816892
0.01197896057638253	0.02175377871520479	0.01247489550414838	0.01098845556045826
0.003614175447995585	0.01816988113865379	0.00663125229813469	0.009135673266088553
-0.00301975571930063	0.01275056615743322	0.002507496099490964	0.002113284238264163
-0.005721601168653097	0.005101120278363119	0.003068732836239913	0.002730154059980479
-0.007338435889952861	-0.007807189159336742	-0.0002966512831936662	-0.003880302980790386
-0.007431482241290623	-0.004463702041507077	-0.002453557071195077	-0.00689513820542773
-0.009445478103041478	-0.00429943082885842	-0.009032861090105371	-0.004340857182672415
-0.004532056590134305	-0.001464348632803825	-0.008485665555713286	-0.005855642977143879
-0.002468811073255524	0.004317210529646659	-0.007296905394361823	-0.006120957366600567
0.009535943696349147	0.0123993218649662	-0.00982730079750895	-0.006400280326072803
0.009360287892462696	0.01918679367079173	-0.01017573951154917	-0.005081006200100316
0.01350580497939755	0.01649843966483834	-0.01556782390689071	-0.005112149554608808
0.01391224825049442	0.0211216465843371	-0.00439888515771001	-0.0005862106722692589
0.005914457935640913	0.01510999438538957	0.003529485880467035	0.008192885043836929
0.006519047320086752	0.01761940534032169	0.009115017000390507	0.01064089165214773
0.01267950989030387	0.01553087245495636	0.01372370314227034	0.01241951749116504
0.01342654302541315	0.01724912246632407	0.01538683832348151	0.008592880836668088
0.004380952194424056	0.01583382868327696	0.0186564400139597	0.006782134387502019
-0.002670728770491876	0.006514696363029256	0.01610589109048583	0.005927126644830917
-0.005183374282374469	-0.00122777913969155	0.01298577068318141	-0.0003675607238402669
-0.01518753814224628	-0.0100226502713767	0.003905766211404772	-0.004862262244513638
-0.01483053906914333	-0.004467856610581626	-0.00110263647941545	-0.007185435637045233
-0.01043526943412543	0.0006631833593324337	-0.004335658163801422	-0.009647412622808415
-0.01494640296861932	-0.01517241819423849	-0.006199140850309648	-0.007186668791674035
-0.00773813835629065	-0.01702963058946331	-0.008373991544286185	-0.006082548095800046
-0.000645136336056444	-0.01235812647326506	-0.00689902380171946	-0.01092143348602416
0.004662252598100901	0.0005008156492969023	-0.009366590781822436	-0.008519111231903301
0.01115798239503642	0.002924307799116174	-0.01431858841743832	-0.008422466713496786
0.01048892957034108	0.006917701187288627	-0.01168475376049064	-0.007393824175842821
0.01523386136201089	0.01021135625984868	-0.01017241573596048	-0.002307696104376685
0.01235126836750013	0.01931817876422939	-0.002327182818485389	0.006252712764368358
0.01215172571005489	0.02606469445534217	0.006283651016797682	0.00871313271706442
0.01033336296588363	0.02651832680345852	0.009157440492476939	0.01192368056606426
0.01521121863574609	0.0267127467458202	0.01181473990058182	0.012634543268368
0.01488438646305526	0.02582857399814203	0.01469037524128558	0.01197016227371979
0.00786990780237252	0.01878868027294245	0.01444088552659966	0.006924825088089212
0.00462332037253828	0.01104269505700626	0.006038014860163923	0.0002674923277037614
-0.008670551379620677	-0.007313300811656617	0.002924830089231287	-0.002729877096357257
-0.007791069314304943	-0.01913421682884584	-0.001739777123724548	-0.00428167143851306
-0.01236128715524706	-0.01584489666808893	-0.002362541516424934	-0.006678351115517443
-0.01532616688300578	-0.01812053645093134	-0.008814429090154974	-0.004862726401372724
-0.01339106026441142	-0.01650076311946239	-0.004982240857113444	-0.008048799107453236
-0.004837194351008767	-0.01305607253624153	-0.01099734285171571	-0.007120191956088235
0.001734181004757324	-0.01094972263465652	-0.00947286160295658	-0.01151161588000245
0.009010666719798985	-0.004203023716304039	-0.0172774533866889	-0.01080868579449568
0.01054023602862723	0.001986537318190258	-0.01370892616642755	-0.00708815143622398
0.01006945992617339	-0.001992193613727564	-0.008921986551438299	-0.00534141971047887
0.01005007937167347	-0.004829114495101402	-0.005646616167517777	0.002153075489967517
0.01407425392450089	-0.0002154298041652277	0.002343314161555414	0.0122815845315168
0.01040052265144772	0.001859025935018195	0.008021430252083562	0.0121000928369315
0.005036871039203222	0.002441080093058703	0.0154181832491317	0.008784512301992032
0.005708231133044726	0.002021096242486257	0.01806116637080647	0.01155018926803627
1.43972189816718e-05	-0.006603542969669122	0.01828464586003709	0.01008131935827606
-0.007995324660935957	-0.01478745190870591	0.009445854928766819	0.003734597646477305
-0.01601564736271247	-0.03020224801656134	0.002556748874224388	0.000936805056367469
-0.02502483976054794	-0.04084189498225164	0.0006886845485513845	0.0006051939107179939
-0.03036291641459756	-0.04279686819541623	-0.001389768047036548	-0.002576783101178683
-0.02502962069418097	-0.0434525501914644	-0.004157041727790182	-0.002828900412858225
-0.01973780943570406	-0.03644324904351686	-0.006052281254693804	-0.005252097875694116
-0.01352460933272663	-0.02904309369625555	-0.003772282165432227	-0.005235508827635366
-0.004362100528836968	-0.02017251990483181	-0.009446582927892503	-0.007532129974368517
-0.005640477299474937	-0.006229935950171658	-0.01134004636227318	-0.009189188476164989
0.001600415359525845	0.001518907662718049	-0.009080568994464579	-0.001439701720959282
-0.001047698445187866	0.01233153578969589	-0.004534828853918974	-0.002793384978492525
0.001836190240280765	0.0241640015575389	-0.004296645831351901	-0.002804666321597464
0.008221866099671892	0.03173343150579111	0.005571908458754305	0.007400988232798333
0.01063710282687748	0.04781563623610488	0.01492495767873797	0.0097620782111324
0.01050423612975314	0.05225636976658477	0.0181266656702021	0.01166127178320797
0.01079681568640009	0.03884136998331875	0.01811933785487553	0.0105962223819773
0.008826016216113262	0.02577857517778251	0.01856959662503576	0.006177631811281053
-0.0022718962387774	0.01137273662326486	0.01160628943962006	0.007182109059735429
-0.007480079532871733	0.005052458036296953	0.005078155801952449	-0.0006605138671420525
-0.0166735906175058	-0.00580846059452522	-0.0001127801409595076	-0.005820283149363926
-0.01443290885277501	-0.01441566390059898	-0.006620200759058736	-0.008421667373951815
-0.01604244130939912	-0.01560089153239458	-0.01437741927160668	-0.01201527505968055
-0.009200382731385596	-0.007109668980173037	-0.01323578410338599	-0.01075120051407398
-0.002897600445753386	0.0008122783726103107	-0.008199415548426521	-0.004756496756269206
0.003932127856715113	0.005344291243426778	-0.01611678097142175	-0.01047946391064729
0.004711792504256161	0.009355923724299525	-0.01723661924817664	-0.006895074026082629
0.01105612011038863	0.01295593621623077	-0.01448043059403455	-0.009559284765300878
0.01379017074667618	0.01722099476570062	-0.01454562080828948	-0.00269569285322686
0.01221688840435627	0.02018527852928427	-0.006354793790645334	0.001523697088528941
0.01687853817051813	0.01990022580709337	0.0008313788808857028	0.004631752198220289
0.01539332076146226	0.02258071886102279	0.006873880906404371	0.009338198671155356
0.02072408769880535	0.02052556718054498	0.01457679478522278	0.006226739710326423
0.01884258882235789	0.01505235096059375	0.01662545277837036	0.008927181367467863
0.01045536492554153	0.01189520026449373	0.01308623348845394	-0.001320316250310963
0.005510537662358117	0.0008264923793426785	0.01203120088164163	0.0009852991842269096
-0.008155495626376179	-0.01051474886630547	0.003251405535709376	0.0009534889366351977
-0.008838079406339782	-0.02522205406957001	0.004406137198570229	-0.00403539922473756
-0.01291921281581551	-0.04539793050561083	0.0007141952407210743	-0.005895878340954502
-0.01861027146475053	-0.04504846750278507	-0.001936769013108592	-0.004005078189215408
-0.009155999810451251	-0.01496025618112037	-0.0006591885657237138	-0.004882589674398105
-0.008612026146533667	-0.007372518697628007	-0.004652771102610264	-0.004348523139426064
-0.006445545548975523	-0.001405281444115625	-0.006985613659662002	-0.004431196854897632
0.001650035646161109	0.01188428092961717	-0.01380365107137238	-0.005875079935775677
0.006898946407844629	0.01023439482685509	-0.01016067811766008	-0.003675129289925235
0.009394734458616986	0.01076129835778586	-0.01287759635028432	-0.001927922701377308
0.007866431365771682	0.008242949487177022	-0.004752773599402286	0.003367260916159822
-0.002216683125907436	0.001587981531279655	0.00128232817222277	0.005168047725343867
-0.006348990211621514	-0.01025569402348216	0.004783582750222591	0.007231307101198992
-0.01249239366833277	-0.0149427468945543	0.01572216370334091	0.01308036992351997
-0.01427917913086614	-0.02635389436502149	0.0161937359437879	0.01181241682705575
-0.003616473494181773	-0.02678705696222563	0.01060052537510347	0.004921289994905935
0.02697082271015454	-0.01674804879151244	0.01130700090696764	0.005093877999853589
0.02003427075588752	0.0008096076535015023	0.01225510302470607	0.00439356142429843
0.008743642390204583	-0.003641040465119761	0.006651941670641206	0.001991046311363381
-0.0009766393769806746	-0.006797838273351366	-0.002433057948887033	-0.003228251222632746
-0.01237185289666985	-0.009063426568074953	-0.003534654962380994	-0.006495583432742646
-0.02145709788001291	-0.01125215025999962	-0.003947162410145964	-0.005580025734767391
-0.02596231729997547	-0.01114220504246669	-0.003318575426120134	-0.006796502751286354
-0.0237578202395669	-0.02178604214203046	-0.007946194887861087	-0.004028675504190287
-0.02111992983867482	-0.0158569592071733	-0.01860922072697035	-0.006663523434468054
-0.01337707371944037	-0.00808393740500714	-0.01591365859638341	-0.002393571062116419
-0.009108010420747385	-0.005703643095891257	-0.008108005742369312	0.002073863531046645
0.002448114679529775	0.004116299600216323	-0.006891188336166532	0.005412641104189401
0.006688251331737985	0.00200420673435752	0.005365061056721664	0.01168097850204242
0.01101267579925681	0.002445861716932076	0.003859221861159246	0.01186851640904352
0.01407128138448151	0.007305711140351789	0.007718416598937251	0.01196926983924095
0.01988870576052984	0.007580917754844908	0.01437010077813414	0.01077440932575975
0.02311736432522084	0.01051608195197153	0.007966999996384583	0.01252248279212286
0.02644370253091261	0.02180292317686466	0.009231151626686637	0.007743760689803314
0.02247662622155185	0.02376850379737162	0.006670539890989654	-0.0005035071293442751
0.01550260391859782	0.02156831718130276	-0.002104201193975138	-0.004917166269315536
0.01105099294954527	0.01760187774728553	-0.003139758569593754	-0.002649602791074391
0.006530409263530879	0.01176774102206994	-0.005913207322910828	-0.00917137792355149
-0.002774940452045972	-0.00103398486356405	-0.002558042817930025	-0.009513768636497466
-0.005130572796981505	-0.007080544175609767	-0.008720172307665194	-0.006963365488768076
-0.008891873368384536	-0.007823442007608813	-0.007972013267196612	-0.009488924598729473
-0.003805371370111033	-0.002892837625687605	-0.01399530525571606	-0.01028973802992973
0.003386274184278386	-0.006065150100303384	-0.01130346472459729	-0.006636216379478829
0.004941681506841958	-5.218453142824455e-06	-0.00861998253043875	-0.001911288138462456
0.005205373991658197	-0.00255694769630454	-0.002553235879707223	-0.001436203380901195
0.001327226295023684	-0.001954096357022314	0.001595228935331599	0.004180676216334725
-0.003837958265621115	0.009314766268105963	0.007556887112390789	0.006326707898467864
-0.006086592506538968	0.0209119884566809	0.01469320736026512	0.008514885183556619
-0.003614386177007429	0.01372001606342619	0.01530540516145242	0.01321041565432881
0.0002425491135705403	0.01013557167421505	0.01640465641445146	0.004721406364786997
0.002335940248427335	0.008685906692574569	0.01495923262843128	0.0073319525431538
-0.001120604845244952	0.005933265735394188	0.007522665373443962	-0.002636766629214411
-0.004114082409500583	0.002213490113026	-0.0005865341523940778	-0.002000318713834245
-0.006726630518979319	-0.0009121276937088098	-0.003812065378069262	-0.004373660356847877
-0.01427135407968435	-0.004731858561695125	-0.01119538215250753	-0.007830302647494243
-0.01527369981925714	-0.01219448769742041	-0.01259033151566307	-0.00847300931867267
-0.02027200360112996	-0.01049767756790693	-0.01181980498466159	-0.00666626577608273
-0.01462045288248065	-0.00778363972631056	-0.01458582820362125	-0.01105863873356891
-0.0115073339971651	-0.005722841151278788	-0.01457644653821458	-0.01141602495555465
-0.003196965512204416	-0.005708022176300064	-0.009312953757760036	-0.005688227756718515
0.0020060943876801	0.001212974492402281	-0.004237779283510038	-0.0013325459630491
0.001388947296542546	0.006349852474663064	0.004282526722970639	0.006579475287017367
0.00227509702291113	0.008933477187724614	0.009763763315367926	0.007736649083211129
0.007958532625509281	0.0123973669272394	0.01035900849658909	0.01072338559813158
0.01069700461600208	0.01633650607923095	0.01059289287883066	0.006275852645431567
0.01646912728191822	0.02376369196827989	0.01348899247548472	0.006082353881451908
0.02228757004936055	0.02518256018116318	0.005720484368190538	0.004428778710715327
0.01916988518486218	0.02715040426105912	0.005570443182129801	-0.001213500591361421
0.01613232705697974	0.01941370377489695	-0.0008590769374201147	-0.003137970066560638
0.009944601868925628	0.011872227067414	-0.001766971622763363	-0.003085535671614852
0.00145748183672392	0.0005364610708699728	-0.006456933173466787	-0.004941899856077028
-0.005918920545594725	-0.003269518741879513	-0.005869053229913131	-0.006259231969047367
-0.01369614400998722	-0.006740170147371916	-0.003964687225965854	-0.00592031896180999
-0.01537025689979282	-0.01135920908925939	-0.00220444579777401	-0.009802664646292689
-0.01451282192477531	-0.01575422338487743	-0.01016434660384799	-0.01035636141469571
-0.01149082307145508	-0.01965389394194679	-0.009322046096140882	-0.00985917593172524
-0.005108487262133437	-0.02037735019476555	-0.009667469600544962	-0.007441243038336951
-0.002144024849906583	-0.0177803338950736	-0.004469002106536855	-0.002050582758941103
