0.05156443461517815	0.07718076015791618	-0.2886640201028099	0.177853419991656
0.02804489695783792	0.1156770877252699	-0.1209370790843897	0.08104657233939186
-0.004314661785726057	0.1495348428061735	0.1148100070399848	-0.09797542932798063
0.01207682863715309	0.1528172249962021	0.08268763971131174	-0.1783235962833766
0.01231875668970958	0.1041973374273715	0.1341298439693681	-0.05434517843501475
0.02442138798261715	0.04111479341552855	0.1850029013500671	0.08347412213313708
-0.01505868414935091	0.002588226887133157	0.006426348907662404	0.07340902491787876
-0.03097740871690489	-0.01145909494339892	-0.05250803545808273	0.06295216645652604
0.008462899156572097	-0.02000101960312757	-0.02415461202360287	0.02194578955969039
0.06500248049214549	-0.01461958957582484	0.008230512458290306	0.00517751655173686
0.03398272190634758	-0.03584014270543463	0.008662137103193069	-0.07532369459551538
-0.07377502095233114	-0.01419326888004342	0.04499972579298755	-0.02558606328331757
-0.04363520277104025	0.02036183659084114	0.04166043663859048	0.08172147119245883
-0.03579033390493332	0.01293335804233102	-0.0308708628713007	0.1083821969630813
0.006766575305683846	-0.006980597098366557	-0.03050919680142979	0.07193856870110166
0.0315755762043391	-0.01237834881713756	-0.07379057828393311	0.1227960720690127
0.01585284650607371	-0.01850331500904327	-0.05916765755629445	0.1364060722932643
0.03841855567031952	-0.006605469248181468	-0.03877585065769857	0.01410863161791806
0.07310583351037024	-0.007430021884204966	0.1592966078935245	-0.04197894296049957
0.05520554261709278	-0.05106855074400178	0.06961362170911985	-0.05351556311445643
0.01983268212585354	-0.09812571905936394	-0.06107929344687535	0.08708581071697223
0.003084118588861093	-0.0703189064286317	-0.07386637262871344	0.1540009141519472
0.002954930269077923	-0.01387847489973574	-0.140961621664712	0.1315132384144344
-0.037517854656493	0.00862819564990909	-0.1959609811232579	-0.01438431965021847
-0.05852669284071809	0.02815301551871283	-0.1493126331765047	-0.1267105130400292
-0.05056208602742548	0.02128872848140045	0.0147313919849523	-0.1097292203262221
-0.1173350242706171	0.01851678359640978	0.1165230220424866	-0.1562395351700783
-0.0851812338371716	0.004203034080935702	0.07673334894905108	-0.05780196914190918
0.02695257224389504	-0.0520317174397416	0.1651169484182443	-0.0140460676022092
0.06137090487738871	-0.09480314965042387	0.1155373923334251	-0.03670234611567204
0.03740862768845093	-0.08063258179678037	0.09213663995617138	0.001511817849244298
0.04044725626062746	-0.01447030628513661	0.04103781199365865	0.01383846928284899
0.0305912542023912	0.02695960657386969	-0.03369111071716481	-0.05160407380630567
0.02830410191554761	0.05271495326758384	-0.001866139808509915	-0.07058610518151381
0.001258179972462456	0.06908964937485901	0.007851508553680601	-0.06912488049228969
-0.02718311021008928	0.08919705365753311	-0.1236047465367819	-0.06932900319993554
-0.04879040530452385	0.1098515930535319	-0.10630616707425	-0.1362299812471391
-0.04332294352478674	0.05250765731290443	-0.04486236612363263	-0.03517626074880557
0.004380986144671584	0.01797349172153206	-0.0237541087028795	0.00573268936361713
0.003135079336736297	-0.01268855443170905	0.01361945562418951	0.08097687486097897
-0.005540485209175437	-0.02223664926468344	-0.003612681657090038	0.002181114950816577
-0.02220879349728811	-0.01568124218385004	0.0233731339071909	-0.07567361129984811
-0.02307580647052214	-0.003837483631069669	0.1228842085063367	-0.03419111580165673
0.003663006141522292	-0.02571094268622465	0.03566794880767282	0.03852711230614056
0.04427469120192544	-0.02382799029856708	0.06011348430752088	0.07027907297856086
0.02884226151438684	-0.02047879285387695	0.07389837594368492	0.06298082335680359
-0.02941632970726251	-0.03008748169620227	0.04113817644805669	0.06919707532764596
-0.01608141028832503	-0.02692293644315409	0.1410528232208869	0.1074600250611992
0.01815902705266593	-0.06734451354810059	-0.004596560806334197	0.0365031780492407
0.02053313271687909	-0.1048110967928107	-0.1563167752304435	-0.06252217782277145
0.004836475442466515	-0.1563597262663365	-0.2675683729902554	-0.09150390781341482
-0.02861598574205885	-0.1120161566678653	-0.2644320401536178	-0.130742618808231
0.01069731932341062	-0.04321891451172993	-0.1382044446088681	-0.04733897855509642
-0.03678510548455644	0.06895022648400062	0.10863498974139	0.2772465090849372
-0.01696243506004651	0.09852437490588685	0.09169024531125478	0.3231826499133582
-0.004103648179510736	0.1240714732092991	0.3727706432484195	0.111003660172782
0.0128542654649341	0.1149957172415795	0.3001292722756576	-0.2027758522228083
-0.01833275983687692	0.04713918701895243	0.1317466068101484	-0.173636709484238
-0.02756024164604509	-0.00944685896854496	0.1100312666905043	0.05873345120682225
-0.02171299183415474	-0.04021091455289431	0.08738068162654032	0.1004691806174991
0.007764852480723096	-0.02856350264368032	0.04155517777831987	0.1823792574127598
0.01659776102266861	-0.007157532329460349	-0.01384381602118512	0.05650387949444995
0.02025181482450466	-0.02076250901694535	0.008974769789188925	-0.02709724387548293
0.01254725845297179	0.00393847751652399	0.005950900328831304	-0.01704250385940019
-0.01101938496843926	0.01855837735929245	-0.04628426742668513	-0.1549673953255905
-0.01953437116376999	0.0366261402396024	-0.1268496428594309	-0.1969991362178416
-0.003272060841899766	0.03922440292394648	-0.1746618961206306	-0.09952251849911968
-0.01384726623872896	0.08398533431454115	-0.139100926856727	-0.04095363784803981
0.0228395086663105	0.08299379711194779	-0.1078593072361997	-0.06080144263115336
0.07335730207500803	0.02349593140969874	-0.1397946546004259	-0.09199551975110361
0.03216544242154568	-0.01033648057208772	-0.1713798282777191	-0.02211942373361203
0.05479188089402491	-0.003077994371796635	-0.01500360832741608	0.03603192424099904
0.06429624932491891	0.02653540767362982	0.0008468239390486245	0.004910384041420687
0.112092403388424	0.007576841276455304	-0.1105665323096126	0.05982941634577268
0.02132181810916061	-0.05455611469273727	-0.02178832577346765	0.2547643780260227
0.01305053477722344	-0.06489328011863675	0.1055417664460585	0.2784559496674525
-0.03955385651623187	-0.05062834814522137	0.1139511924290307	0.05323574417582071
-0.03290603507700259	-0.06511149797368181	0.0508734037977091	-0.2613000859730253
-0.02032033376961603	-0.05340130110540593	0.01157684066107883	-0.2668377618779795
-0.006054894379710899	-0.05532805168334783	-0.03653223257715287	-0.1133522300260721
0.006353123711253465	-0.03659172244748846	-0.03558777205798686	-0.08722553678677802
-0.005576306490533088	-0.04895074856075678	0.02026097708926101	-0.04857704827815265
0.0003011330015675336	-0.02310975620838497	-0.001887317869450512	-0.04225788223057068
0.01439519291184704	0.05497648006131678	-0.05619249128144901	-0.09868237917780598
0.00955968725274221	0.06520516229314578	-0.09355198815653183	-0.08308093875335729
-0.02228284577093778	0.08230637222086513	-0.06321164677999486	-0.01950896838637291
-0.003111670199996519	0.0753508357212896	-0.02301640905472353	0.02232371360152118
0.01668826185163134	0.07135115716044972	0.06646905305585618	0.01790905106997561
0.007741490814799273	0.05610743197364836	0.01713201288981452	0.008805101215604469
-0.001103433135427089	-0.005702439263661508	0.04896679894121337	0.04151781847135991
-0.0150463904245083	-0.02205040421754545	0.04559440480248563	0.0546052039199383
-0.02529655957383848	-0.03557676343970501	0.01012597254261005	0.03680193608670127
-0.0322951879832183	-0.02909099498464062	0.03099816424141219	0.06131273305523575
-0.09273091474180443	-0.04816841473507187	0.03394366920144868	0.001990256910480558
-0.06408271959058802	-0.02184950003403501	0.0138873560980321	0.0251785849347723
-0.04032239731565216	-0.008008554454550241	-0.03543589390187979	0.1231373642213765
-0.004335781642257929	0.002790270923591774	-0.04140982490671838	0.06378830494677101
0.03531337504288828	0.02627990032595803	-0.07051814448535133	0.0599108175385612
0.02075785224819974	0.002771744460927548	-0.1023544552148338	0.085762331401306
-0.04701121784360188	-0.004470058171551702	-0.06293293451086229	0.07952896532640584
-0.06080134902681994	-0.007096322208816876	0.0205306875836689	0.05002230924302745
0.05060963231971095	-0.03864877035833933	0.1034777954683142	0.07000914246176873
-0.03760596581274638	-0.03915877819440462	0.1924400384185287	0.05952797078784487
-0.01719821295306351	0.02324381685790603	0.1687234903876194	0.08626904518999046
0.008080100815653314	0.06001075118802711	0.07739669722178971	-0.03749120501108251
-0.01641619405970079	0.04694097591804919	-0.02506582124365152	-0.1257226338115051
-0.1131085993055444	0.03565071835992599	-0.09175885894656489	-0.05771078765229712
-0.0672701367561723	0.02056443688131518	-0.1325437364346467	0.01618679283738166
-0.01828787805995684	0.006356788917621409	-0.07157871340765205	0.05593117979266885
-0.009986170624616058	-0.0361130374459757	-0.154502936046153	0.008781928898444034
-0.03251330275621661	-0.03819975061239055	-0.1704073334813349	0.03504699231507612
0.02950864565287583	-0.03497466566531727	0.003163686027043545	0.0923984560261287
0.04173084452516847	-0.03764053460004892	0.2818866961133942	0.08379703357986946
0.09587414327005873	-0.01720680067529181	0.07764814024086333	0.1097115563887243
0.06330263290956865	0.03326746519490118	-0.160078330164162	-0.1539673151511667
0.005720617389239964	0.07271764740076223	-0.2730760600912569	-0.09202282793306128
0.04475708624446154	0.1184564773580821	-0.1023697828252277	0.004113685669497497
0.06030113343515635	0.1060791728828468	0.1121014142522787	0.03980864348316758
0.0513678340924289	0.06752549004890755	0.04995449669982023	0.1586802312903207
0.02641776708615218	0.03882144333630392	0.2136348700671928	0.1606267063205613
0.002699611122580089	-0.01288913243610847	0.08951694224633386	-0.02407203495465557
0.005408058266024726	-0.1567931314745996	0.05087739251440735	-0.1607082958029967
0.01920169094859796	-0.0613258578423853	0.09863146171338498	-0.212034320415013
0.03490865820744764	0.05811471395620955	0.1659802021844203	-0.08418308089072958
0.001059952797982179	0.0729853791011886	0.1932078498968355	0.04113476083587442
-0.05110171348625698	0.07878709688983428	0.08129321591555101	-0.05482937383506101
-0.03515929481039605	0.04185508220231081	-0.05120235858897552	-0.1183790193680511
-0.02287302735517684	0.0004051384625382659	-0.2035892277353733	-0.1080855472888648
0.0095821231953992	-0.01035791764935397	0.1914001800858851	-0.03871402961364696
0.01624443232231904	-0.02365179137362744	0.2019516524561187	-0.1391440186069414
0.02263239381615036	-0.03076406903315089	0.001471609199828948	0.03385139276943822
0.02616101659825616	-0.0258094846894798	0.059073645615667	0.1135427640394309
0.0638005220997379	-0.02492558545675354	0.08298542534810671	0.0919898622494755
0.03307788746648883	-0.07978924735255311	0.07509554876546019	-0.02820684070011816
0.02494415971985364	-0.1024331319514545	0.0302776896289852	-0.09411715468714624
0.03642690492176383	-0.1198067767788328	-0.01844854888143673	-0.06876790314569149
0.03198589544586073	-0.1004543210801931	-0.05445729142665593	-0.03019716758904355
-0.005247892775000542	-0.1288984445741972	-0.1455598724550998	-0.04890660752364592
-0.02644628368131661	-0.1410663523734073	-0.08759072274905719	0.001320233365471974
-0.02016406235506936	-0.1024925236929294	-0.08446807159010489	-0.03802033587525894
0.008984761182631425	-0.04408390629967324	-0.07137228298132137	-0.1362702919559665
-0.04890328818024823	-0.04527853508781067	-0.05233015188526792	-0.03533710802560788
-0.1046965488924654	-0.09697972370567577	-0.06261247690213681	0.03708664615323393
-0.09997059025780983	-0.06725052984757567	-0.06162461382593466	0.02928618233485456
-0.03368142430965321	0.03245748332007427	-0.03743202034465475	0.01218110704922705
0.01694217693119389	0.1065169361326836	-0.07905644362972164	0.01245554598346202
0.0477658901703541	0.1520904144920767	-0.0410963892449047	0.09889349884717326
0.03737901684920716	0.1189307425043317	-0.06793293450881599	0.1367062410127331
0.04783448811592064	0.1034268956425706	-0.02809272413256896	0.1037285537893255
0.03282817406394806	0.05533029489370597	0.01316747199466027	0.09037383926533885
-0.01410667359002204	-0.01981561942866285	-0.02086496403795301	0.05057453098973792
-0.02153907333063595	-0.03397238111394663	0.0197393209622018	0.04848165881124124
-0.001616556374614696	-0.01908350700055406	-0.06096082533384337	0.0002494984085680409
-0.02874884553892715	0.007879166739892527	-0.1048150066031592	0.01682015420662757
-0.01404975209140041	0.04012511343413397	-0.08709582780884428	-0.01084036323123476
-0.00407570717177512	0.0587051566853381	-0.1122356330134328	0.02002876064359674
-0.006431947886862989	0.06290864080399658	-0.09982966484400016	-0.09205182293787716
-0.01927138096201264	0.05810327462086878	0.02512778382593413	-0.1292605958578382
-0.007973770341169903	0.03165073053520416	-0.07083854777788592	-0.07489572879737276
0.04728317243195081	0.0136462670444612	-0.09933445565502949	-0.004338523186242237
0.09370348776410417	-0.000942305353354425	-0.07128600669131668	0.01764798954181563
0.05902264397873111	0.0171508495907792	-0.02212615803619228	0.05860694112915259
-0.007999382594500174	0.0001235523497076937	0.177187635141095	0.1619841955093894
0.01353273390595777	-0.01092054899721093	0.1563986556996165	0.1000871917370858
-0.01879971623592844	-0.03051549301826398	0.1224023009910218	0.08217774270393409
-0.1048275821978461	0.0042875243648163	-0.1151607978545199	-0.08742975633486987
-0.1068482329409265	0.009040707783961464	-0.05323424850615441	-0.07182180136621545
-0.07749278136692062	0.007849458424685296	-0.04042420134269383	-0.1285851487635077
-0.03365103410167092	0.01750253679322082	-0.083615811117767	-0.07027420172136578
-0.05180312407046248	0.02841408567024507	-0.007096776821106191	0.02515832225367912
-0.06308995943318278	0.02251708351555977	0.1526741141240003	0.02073081701969895
-0.02829462103581042	-0.02189702820773116	0.1327199505540178	-0.06268288730216509
0.007539409595214592	-0.1159120516158329	0.3029957864085518	-0.0001095591441474938
0.1058355049372466	-0.1311700245975421	0.1752700967970529	0.00798260903684863
0.08101020029642328	-0.09062030347475254	0.220675552606179	0.03434543582459838
0.02328280572134163	0.01973022977863091	0.09080927166459141	-0.04824887913599921
0.03570972989316306	0.09415390866827267	0.08244525072797664	0.1706098897573569
0.02948573493915733	0.07393320423165675	0.04522830145519281	0.3526896187699949
-0.04990161655731733	0.1150367143275469	-0.001698319962827111	0.2361145192704127
-0.07908792819397926	0.1512470598132637	-0.0852998793227463	-0.07354957750526381
0.0008585988139383448	0.1240062498840315	-0.1081344092118989	-0.2430854318310345
0.01979954613620516	0.02973056347957954	-0.05829801483959056	-0.1977535050453659
0.03186060804939327	-0.00489229940530564	0.01076201282521298	-0.1867042657811164
-0.01340829582028803	0.0002047159444279135	0.03486883703873932	-0.1421759779951982
0.02494741958702757	0.01866682023373816	-0.001551671420287016	-0.1158339334875121
0.04513165891032821	0.009830975188281355	-0.06803911687393409	-0.08541091383187176
0.06101117522142886	0.01900766536902817	-0.08190911150917568	-0.0357033697461251
0.05775960358374665	-0.01276296086253212	-0.06360274174331815	-0.009918110282899639
0.03497306932144848	-0.03885510904999191	0.0255342655092053	0.04555545386828039
-0.04640209310280553	-0.05207265729804567	0.006676275012573679	0.05508753722999196
-0.0518286398521333	-0.04692417929766995	-0.03887165024617662	0.01407551762189459
-0.08504344271462011	-0.06240318708448982	-0.1033429436892105	0.04777697340475526
-0.04817086436595176	-0.01378444287757315	-0.1204131417476445	0.01688074163667829
0.00877546729677574	-0.004587077628443158	-0.1396751773115114	0.03342279938805273
0.03123908223364395	-0.02766602369012666	-0.04882109996082445	0.004107339394481714
0.05701972076653979	-0.08905931366491528	0.0638286680443091	-0.02969981793001796
0.04576325694627162	-0.1398442173685571	0.01697065855165567	-0.03025834712460141
-0.005163340763581257	-0.1123771325972867	-0.06391593905006147	-0.07944893805044209
0.01291693898228473	-0.02504291041212118	0.07300959132360424	0.01366316409853685
0.07217774801548998	0.04060825792931143	0.1035456093934139	0.06864548771776463
0.04290888349232082	0.09536144717853015	0.09301758054699708	0.1053635958349693
0.004518345632060168	0.1309647540338263	-0.06225635113634449	0.1192342161396196
-0.0134984464043102	0.1455380210367233	-0.065570407595245	0.1288822890546025
0.03468568955868846	0.1423877162650835	-0.02980499869801331	0.0405316537971168
0.07936266617328849	0.08975777632447553	0.1249808421503977	-0.08444224921083825
-0.009171083181661393	0.01574642880066695	0.1835858652277219	-0.005642245870508498
-0.07456052208625943	-0.04248442230969768	0.002056052171658633	0.1006133029787741
-0.04395140184891301	-0.1100428708109324	-0.005577281622960919	0.1129855911389511
-0.002333556977726027	-0.07749006504929826	-0.005596554815474445	0.1604649681213997
-0.00765326165051488	-0.07858100442348954	-0.009459532536461635	0.0004285086970886446
-0.02804096325459983	-0.07059169293347675	-0.04935416464506653	-0.0642351740143785
-0.04061703036182659	-0.04314909062593375	-0.06881271762142904	0.03543541673117636
-0.06123845588610149	0.001267140616386686	-0.1564713920074635	-0.01528665676494385
-0.02670275524011661	0.01354278538157711	-0.1360392956499048	-0.110863719412672
-0.03133350409483605	-0.009032091269840092	0.01845097600972255	-0.007668693902058226
-0.01741549666076935	-0.06325033857357548	0.0002817676492508333	0.05349927227403242
-0.03360135561737132	-0.04742507286928747	-0.02131270905110397	-0.0485581852795755
0.0008853155930567283	-0.05100357629163602	-0.06568457205874204	-0.1461229604838365
0.06810120197955163	-0.02534347596184137	-0.006915853228593333	-0.1396273345081518
0.09099460099973862	0.0117360432319935	0.1063861037178409	-0.09674119798943465
0.08371361662533243	0.02147519935483303	0.2001834686249138	0.008148100680662006
0.04129790039058032	0.05868438497271631	0.09523436149637865	0.06762055763893035
0.04628354062493913	0.06718461416459456	0.01653092014461908	-0.0650564041689331
0.03276388332500006	0.07812563663554156	0.04546142187372709	-0.0417679193328321
-0.001200294174309674	0.08057503630477272	-0.02468062811165316	0.09394553179804362
-0.07529244887408863	0.06086511778955055	-0.0731706860632448	0.1456459332691163
-0.1441233258	-0.008022777683217755	-0.1248244268572983	0.154414387612606
-0.1545121041671175	-0.04356679641881504	-0.09263297479024102	-0.09315483203674869
-0.09778804856490211	-0.1028284066406579	-0.08210978786803373	-0.1322339621940642
-0.0724925960390301	-0.1060676781918349	0.1097512378760221	0.1233747103261816
-0.07269529518786633	-0.06091722274924634	0.06467316312933646	-0.10046383462659
0.037942645218381	-0.02653432634645585	0.004839436126999448	-0.1380875329402004
0.06480782136071346	-0.01220457619761413	-0.06381322412670754	0.02411196578250822
0.0500164108847382	-0.03326807113826054	-0.03972213166346845	0.01609915472470161
0.07715698220372789	-0.05483989090252264	-0.002847133810315977	-0.1499223701508524
0.0819044142226306	-0.04703132729292678	0.1933708737479392	-0.1029143359140658
0.06896245583539584	-0.04119327958291005	0.2353342024652109	-0.03890061841473118
0.08492532497714067	-0.01635423435609218	0.2285271919295803	0.05179184274476731
0.03946471923430496	0.03295069000685535	-0.01129213313165336	0.02486594865003789
-0.02965068904906466	-0.05661352312888125	-0.1124493699673439	0.04562053124117247
-0.02853405875074932	-0.06500008604918525	-0.09797816230242157	0.1485311010103813
-0.0527972476802725	-0.007064540648100016	-0.08576656593644827	0.106635207442295
-0.05213574597358303	0.0625109012955298	-0.09363136245172182	0.07646579935298178
-0.0798437064610652	0.09047502134433223	-0.03363030684472056	0.1674711285076888
-0.06278099075511615	0.1068724664294404	0.0529028954810864	0.2013919891083491
-0.04179592934162697	0.1428355571183743	0.005545495880952672	0.002175095764324924
-0.0242690812756997	0.1661465466177145	-0.02278389325357657	-0.07406226159578283
0.05590828986183462	0.06219071113995647	-0.07505219611470218	-0.01576677289408282
0.02476611291856809	0.02792625716227441	-0.142220468326994	0.004291723080320742
0.0363545227141966	0.02372300089188906	-0.1508917304410123	-0.03675870168707665
-0.00765979558091336	-0.01769853323055798	-0.04887680927494346	-0.1698382827767009
-0.02606072033011708	-0.06728362064566612	-0.101604851886432	-0.1367730714021682
-0.01319026632343375	-0.1014244925215297	-0.1376829312949692	-0.02859950818821694
-0.01719500545375785	-0.09054453162408704	-0.01656925648582716	-0.1470504121211498
0.03233380214039942	-0.06605322955651792	0.2250486594325161	-0.1146776911670475
0.0326063354246694	-0.04768822196419822	0.4502548625940188	0.04917538916809831
0.01943605452595268	-0.03404755235355371	0.2783689706761424	0.1020592738283875
0.04344985761202218	0.001901613537734908	0.00349067668679083	0.2150953786337167
0.08919816225016018	0.05644166549070784	0.09334907302034294	0.1227705485008874
0.09083921420241731	0.06720270769991132	-0.02183342712335551	0.03131085075789804
0.07334342158416612	0.05924062010881052	-0.08330924563699765	0.05943268089263324
0.03662190850321537	0.05295204411813743	-0.07577540348929739	0.0865351161879417
0.03950932777080904	0.05856769813958392	-0.05323621624525689	0.05252720112175904
0.04142323539459029	0.07010100555032606	-0.1147507868351862	-0.09826491618649473
0.004799320653829003	0.02523061337972491	-0.1793163715513146	-0.1105399112778025
-0.0407441604075495	-0.03209550710392536	-0.08139684016063962	-0.2044695322547054
-0.03747237204632955	-0.1370207851378178	-0.09168961920456749	-0.2586034578209912
0.05080797037029455	-0.1232038560858964	-0.04915289617185004	-0.1695077822730816
0.02601805946014627	-0.1023738048712124	0.02834267042445444	-0.03732984747148799
-0.06652084781631067	-0.01090684260354737	0.2145453153257074	-0.06919603499205812
-0.0424734407018808	0.05113199513254706	0.1746135480408343	-0.03270452135874953
-0.07259794240878199	0.07614349968118438	0.04339018188352743	0.03179738418900873
-0.08042137489986802	0.09197578079317359	0.04658683678868549	0.01437506706367772
-0.05444638512902994	0.08029353805058805	-0.003808711620729526	0.01889053026309357
-0.01034177564155843	0.05110605753371664	-0.06991665673685787	0.04684996697693634
-0.01360297699184625	0.05725429265726481	-0.1114156969953313	0.1700512232455116
-0.01922085211101358	0.06590865405656501	-0.09188821721291772	0.08979478698798152
-0.03210190317212408	0.05025370336229875	-0.04855870534374001	0.04156613451031683
-0.03255917487609573	0.01007928495624476	-0.02888761056655251	0.02535511360512097
0.00734626993346517	0.01982570866356555	0.0354517483746629	-0.07948533016439741
0.006794194427187089	-0.0115866579244821	0.07774423847452781	-0.05019684262776294
0.01376270620979485	-0.004999405716011421	0.04401794254852964	-0.02967468007288094
0.05049346297641597	0.03724589073892877	-0.03333714566909393	-0.0528468239362306
0.03277587747035286	0.0388670197739219	-0.04314900797456467	0.01261191846287238
-0.0422520534799827	-0.00390891821355047	-0.08313962853113351	0.05173190855973609
-0.03005678442695928	-0.0205387830657226	-0.04048457022212119	0.1357197548846214
0.0007608108713484866	-0.04886048014633083	0.003426002510935091	0.1365743157462695
0.03837868480788369	-0.0795150994252587	-0.02406886405109886	0.01222942681856064
-0.004013262200798652	-0.06766836003949943	-0.06166763945301174	-0.04756988368302398
-0.02117166148595832	-0.03555434888236831	0.002247648878231458	-0.05355920473761758
-0.01166722536000141	-0.05186029198019098	0.1225698874885528	0.04966978318270191
-0.006312828918793674	-0.02474411665636841	0.07171266512063636	-0.01888086938261192
-0.0148465225505364	-0.01436479824968713	0.09189751640884569	-0.02118728958625439
0.02467555724369713	-0.0074433163347723	0.05140632367285192	0.001694678266705363
0.009776269112454512	-0.01063859830342759	-0.0892894709267842	-0.03997898802665354
0.004245637653373511	-0.01554313570583302	-0.1304450833441506	-0.06780780121500668
-0.01905291642465816	-0.02261103549580064	-0.02721100485085274	-0.05563065559324865
-0.04044954823178887	-0.01312120371412717	-0.01133318071885581	0.007849334741849751
-0.02034758639454736	-0.01536957639917694	-0.02450867855682536	0.06624598470806783
0.0115271029905925	-0.02742514471502851	0.1385996361793345	0.1947954134390758
0.002582002217950961	-0.05234676126089011	-0.02750576740985525	0.1422472681624411
-0.00457069741208541	-0.1039457488463859	-0.1299164165587788	-0.1148287800132252
0.007905031223264764	-0.1114135984556012	-0.2085956501246691	-0.1204261024281683
0.03424386989605666	-0.03586871235821051	-0.09464668908793324	-0.02274945447479367
0.03281134000677106	0.01657795221090963	0.283585723302811	0.05529112400432827
0.06992035297532957	0.08851789067479106	0.2936181092528124	0.0205992960911863
0.07104362835829843	0.122275778898082	0.17755846185511	0.04737432471721564
0.03911085890734985	0.07943667000440829	0.08083802188477963	0.05509779758565074
0.02143218237348456	0.09378772931453894	0.09949559385398242	0.07909438787284817
0.04344559731946247	0.06298480614989135	0.0522058575024206	0.06426064298712016
-0.01280772883593533	-0.002039826721466066	-0.01097145287075905	0.01645708685355962
-0.0296059932174561	-0.01835068697936588	-0.01309354383018242	-0.00851276970379288
-0.04318152520929371	-0.1186940456442239	-0.08874531477437107	-0.05264509374525702
-0.00765560354286141	-0.1317096169040496	-0.2138367215502122	-0.05444610763361597
0.08889607327394106	-0.1055986652833559	-0.06043458413883873	0.03089962798000142
0.04277347251060757	-0.02608610122578636	0.2913718711441887	0.1358371640124243
0.04900253001903786	0.0178503928173568	0.2119918965894354	0.04120669245581439
0.07345101644711673	0.03996061314830252	0.01271531897780315	-0.09432636403180272
0.07168020340585694	0.1020919224372823	-0.1048686083717531	-0.106382432027859
0.05630778563922289	0.1048717924302628	-0.1010724890962379	-0.009357769913527806
0.006970942803624647	0.1029393796062094	-0.09970210494786026	0.134965333739148
-0.07026093118929438	0.07379825244255918	-0.04866990526213293	0.1542948389936359
-0.1398661311925452	0.02049915336449851	-0.0398249348005189	-0.129738726414322
-0.1296289116470098	0.005487613131019655	-0.02841134068150444	-0.1492505434810989
-0.1157771459918257	0.003058896362357589	-0.06935687033221567	-0.0564302584162472
-0.1457079351343533	0.003857416309860936	-0.1013449974537213	0.07565196596995438
-0.1091488867295028	0.01041393747627353	-0.05847667845360582	-0.0213424343785087
-0.02738221862253527	0.01840053486252814	-0.01110457912637467	-0.1110731510584618
-0.04440654914461673	-0.005684600807414936	-0.009181271073679099	-0.1877572825310214
-0.004456129871380273	-0.05279198408592002	0.02231570659339346	-0.1547722479072917
0.04111861170577996	-0.06489836495442411	0.03194568466088746	-0.05482780508051031
0.06312644714955166	-0.04272065525213572	0.01013048879835927	-0.04182869530633201
-0.01003067619718906	-0.07386651706570099	-0.06177445848449646	-0.09253669495753043
-0.02708638908107186	-0.06506303666093215	-0.06920261375080415	-0.1258333634232344
-0.01380027901520748	-0.0701176051177276	-0.1315522191442613	-0.02365484201930326
-0.06052221196082821	-0.07378461848407809	-0.158695208445466	-0.0008042199495204344
-0.02790179080759143	-0.05474324944020939	-0.09125910040127685	0.1468378235940393
-0.01469132375754108	-0.02379936547075014	0.2220863016747077	0.227665085303304
-0.01060647633932148	0.000252809516362344	0.1761786917218488	0.1213159269673563
-0.0007116923804899236	0.02053165651268878	0.09803185504924176	0.03885950131298783
0.01968262555425947	0.05221961959129166	0.0600637907218645	0.05748677801526971
0.02014867019535065	0.02796417281469922	0.03336020352676032	0.1871992004932274
0.05782151312605768	0.01855524896179968	-0.01035747671057748	0.1339545996135852
0.08184447022723335	0.02452459638394437	-0.05940148961116477	-0.1128549114387439
0.05611948482278695	0.03647188105014051	-0.1252282302348541	-0.2326176205942044
0.01099571672677796	0.023453833889459	-0.1518366405706615	-0.1142718659175289
-0.001049968407141551	0.004644121172404564	-0.09989474993817389	-0.02399991842589353
0.000347346057640081	0.002757600921994633	-0.05041528521177957	-0.1135979591344268
0.004929929071878999	-0.03694646865490331	-0.001580536009605659	-0.09771526283017413
0.0229931919121291	-0.02645629381353611	-0.04817815248501556	-0.009336923454039102
0.006773288311830866	0.002697851189236864	-0.05005330174257881	0.01135293881365039
0.01742653887787765	0.02995825240783388	0.1977974870518065	0.01135886979756313
0.02771634265814002	0.02129322101890967	0.2168780705602581	0.05828876586840613
0.006128633499953878	0.01411334929397095	0.0846057223414616	0.1382481588686169
0.02833033945834331	0.03141443755967178	0.01178099733964024	0.1806386650171961
0.01545442194182586	0.0477329668270326	0.08243050977015752	0.09603479228029355
0.04082481358888729	0.06007332891395147	0.07373247891176887	0.01702235345428806
0.04100150759958037	0.0606215283421284	0.03106152719184384	-0.04092049303335134
0.03055553853122518	0.0562588153309282	0.02036364355807848	-0.06682982523587384
0.003114173053342486	0.01048577469161048	-0.1078680385206296	-0.008564352674847991
-0.01519914340681959	-0.005506579509284713	-0.04671276162671794	0.00627916893893364
0.003356307722877708	-0.005439339791069761	0.06496285810675434	0.02865197884729565
0.0006158412634914662	-0.009999836074611225	0.08750169457890551	0.06750725589560547
-0.02161244857251732	-0.07059484339607874	0.009015987238081653	-0.05856040672209518
-0.03486228463118712	-0.07269067485463442	-0.05259364459569198	-0.05518827492562488
-0.0004333269195223812	-0.02937472126030746	-0.07482214969607565	0.1445701298685318
0.0130051257081904	0.01920445472364508	-0.0885006178559704	0.1735909144517882
0.04263340635149679	0.03638705723287033	-0.1177381302857657	0.05419433691242253
0.08992988845240749	0.05301775224884687	-0.01446551505886871	0.03258677621476742
0.07879359720141217	0.05055321376097135	0.2881450412492889	0.005207229694616039
0.03031058823492552	0.02271937613131523	0.1056484736879639	-0.1434126006815588
0.02423997635785122	0.02368854945549844	0.0163090317441541	-0.2283991675155641
0.050149452564893	0.02024410699453963	0.0295477556444535	-0.06190722942308892
-0.0525694960353992	0.01676814879868037	0.05631739509714014	0.00839313726983036
-0.1516306276964646	0.009443487531469771	-0.02007133466672283	0.01520835252247595
-0.08334843916866619	0.01766774006681277	-0.04972638138640195	0.01260399343318049
-0.06816092127384754	-0.0008983635922548377	-0.08208738949202672	0.0038533295963385
-0.1137237960637655	-0.008573357115314258	-0.03866694328803264	-0.05853978155253159
-0.1302729774090301	-0.03124205858189508	-0.03910720156499285	-0.08968207755311833
-0.02882179199494434	-0.06904485390197068	-0.1383762365622517	-0.04327174419862378
0.02508282551146334	-0.1709276943444064	0.02125068004090142	0.01831006558346703
0.02409349205151632	-0.1883073005444677	0.1279890901085278	0.01093423379941746
0.02679634352242051	-0.197019859004738	-0.008596749146434601	0.02499070905832062
0.04713146447916232	-0.1368153817769761	-0.119381154767192	0.1117138203181181
0.07491353406289258	-0.0452240675971914	-0.06722283282348462	0.08587341836525239
0.04125474316656258	0.03421765222975283	-0.03494535360165213	0.1114814646516924
0.04174022137739717	0.1249098422215136	-0.08985701832681754	0.03856432912308287
0.02438099366804319	0.1564265056790693	-0.1253323072015647	-0.004627508716450688
0.006884852741197851	0.1976461501140805	-0.09335430344836275	-0.136096186939973
-0.02089463874613431	0.1787481315218512	-0.07597830474865232	-0.1241188007731162
-0.0560290698817232	0.1449435819262313	0.04167996700794772	-0.006540814985662788
-0.07865735280663433	0.1395643577973192	0.204588358198792	0.06632739862916978
-0.05086738249532233	0.1447721177363465	0.1616331105323245	0.06094235893268383
0.009397704568657267	0.09979929606920748	0.1672949673048856	0.05359616706280242
0.02766746854738393	0.0677117042536963	0.09561901284902675	0.02413348128334688
-0.001762751139062104	0.03690000751714715	0.03831100076248485	0.004029504217439015
0.02342118787885969	-0.03939658216337478	0.0149536764360438	0.02416279463076236
0.07506288336507412	-0.05086486432760774	-0.02318814750119693	-0.0498202939029715
0.04105754670315338	-0.08959039739078289	-0.1396509675499594	-0.1572902767016777
0.05692341574047128	-0.08029571398861769	-0.1198881767114453	-0.02864180506080331
0.06001352661688731	-0.0500109766048233	-0.004595980784026005	0.1100047999943197
0.02563223711119646	-0.05630464131324036	-0.05396599740194634	0.174086627503475
-0.01109879400523139	-0.03812900330212484	-0.06618110230954265	0.08451754442941938
-0.04997662134423508	-0.03440035607165327	0.001339756299528222	0.003800685069063767
-0.08869728237263884	-0.04666767255091471	0.1515853283521142	-0.152830281218577
-0.07664940873042674	-0.03569939829083959	0.07431755905944774	-0.2230429656260438
-0.06433629352287785	-0.01997779206979063	0.08707453368061512	-0.1183750241954065
-0.0564664515057202	-0.08249290992304145	0.03986259182542704	-0.02451814723977416
-0.03574009969863179	-0.1217238969664464	0.09782069547234901	0.003380606163337338
-0.02599153827159348	-0.1260759556260848	0.06064649440488765	-0.0138055593273818
0.001069544596883087	-0.0606341583903607	0.03915656082041042	0.02065536166491313
-0.00786569567229539	-0.006018360376220883	-0.0401959387462997	0.01235742236189606
-0.008478993754472287	0.01077267034736083	-0.02726020737433506	0.06832219619628316
0.06422474067284825	0.002864214161400229	-0.02063217184215852	0.08100612260103851
0.05121423568365223	0.02735000978917263	-0.07417908411120303	0.003853380710479531
0.002188666801792792	0.1336612485257975	-0.08857537663437318	0.0009732518597315616
0.03193995453830581	0.0659563942491419	-0.02383175822186072	-0.003493013160921195
0.005605819190652793	0.01823600740308671	-0.01170914957032451	-0.0373516255508106
-0.01763325652113628	-0.007338504584770649	0.0009497238038732368	0.004148479235554487
-0.009167380071262774	-0.02731018117570255	-0.004830173738606154	0.02653055491131477
0.02310592604841417	-0.06155221643664258	-0.02144879757884339	0.0590125380816896
0.09335595650714662	-0.05668254972989124	-0.05906642224419404	0.1124752193133573
0.04670868392245827	-0.03461756964609533	-0.06500208603148555	0.237462744342358
0.03223509262503976	-0.06041670715771453	-0.110652283704123	0.2206396259624347
0.01648312468835264	-0.1609733711057131	-0.1086172605461191	0.1119437128075808
-0.004199634838957846	-0.1371522445153381	0.03887098254858161	-0.09111081015033805
-0.008656992739403051	-0.05438923673003283	0.2290173532473523	-0.3202982385394598
-0.007429257311184702	0.009095173240762054	0.04382870756362814	-0.3514611426792779
-0.02086245681046242	0.05959628649441536	0.02939537824673191	-0.2047239747297042
0.004705836774994236	0.110863435755318	-0.01207164488880302	-0.1153325611961368
0.04429594951961026	0.1410084756215865	-0.0441703525857125	-0.04510094580129888
0.02438854394347312	0.1584180781739209	-0.05090036083007351	-0.03452870575948036
-0.01459498920175545	0.103319026225832	-0.06870317825560159	-0.007646954047932471
-0.01419047460302793	0.04300445841692953	-0.06795643032412774	-0.03664935533158205
-0.00552883726399484	0.015765367798545	-0.006018885472306694	-0.01786382990971183
0.004912327019981608	-0.005947516006674409	-0.05725742742557063	0.0204926053765847
0.01672324132630035	-0.008694332706014742	0.004367751272260261	0.08935779917351198
0.003488274071114556	-0.01429850967707271	-0.02410763250560952	0.1060497558559937
0.03787854545960891	0.003598541078647099	-0.1160705980188505	0.06470323630511966
0.02921696239353203	-0.02755909206891437	-0.02775778008306535	-0.05074883256646718
0.0003058133686322001	-0.03239539961640527	0.009690683880235671	-0.03075128675955723
-0.001343194036408297	-0.02606724315215261	0.02048205163122024	0.108867167671514
-0.07488417540627375	-0.02223102863460546	0.04876826327166616	0.113614781264396
-0.1117797298652006	-0.01948416432718709	0.07719312028339893	0.1063669094421364
-0.1050854756732886	-0.01623216354066003	-0.03017843157998379	-0.04485709398028552
-0.03209910026984035	0.0266666135998388	-0.01456378437108772	-0.04859837883924755
0.0142283417800258	0.006056857634890941	0.03750884087322901	0.1186297063441312
0.01907953009281106	-0.03509028721313385	0.138228025456694	0.199731302242538
0.02037727864458506	-0.01054884426838719	0.07527772378615037	0.1395907264887891
0.01737005092253789	-0.005314451028426502	0.09888287333259135	-0.03179813335824881
0.03272142754904522	0.002635711225402416	0.1684141716046861	-0.1405589458883607
0.03362270394193592	0.0002990142891552017	0.09303105228625043	-0.05101049685862068
0.008575131573675626	0.003314018159453142	0.004233000331738864	-0.1111869770315912
0.01547724645929937	0.01816208087003103	-0.06787785214231239	-0.09533624931349445
0.07076106026106495	0.05821764914265495	-0.02749632012074531	0.01548442946497724
0.03502271582782943	0.04555270867182802	0.02614619967259159	0.1727168033697428
-0.03020518516001016	0.02700771000697154	0.00299469041726991	0.1233440629816173
-0.03046262026036298	0.007130960095827393	0.0248596116415864	-0.08445856157219055
-0.005571284190728484	-0.0005748128696564285	0.04498074376235198	-0.2698405081744906
0.01804788826538738	-0.05969688191069848	-0.05177797181482385	-0.1671897839076867
-0.0527315297052144	-0.07159793406318203	-0.09312153998240699	-0.01074648716586154
-0.07414604677564315	-0.07781709469416527	-0.08802510550954844	0.005763564564371462
-0.05210323189416567	-0.09601677378775147	-0.02916996258513437	0.02630014919732316
-0.02574478245453613	-0.05874183844368702	-0.01108172076490395	0.007030612705523792
-0.02381088948078434	-0.0393347998751189	0.1673273191642489	0.02104826635009368
-0.0266564556277042	-0.04310807866824733	0.06700749971707756	0.03853037624956294
0.03101967454544541	0.02395540508622656	-0.01396505535335316	0.09920679100490133
0.04648380922555142	0.05220173363620743	-0.03507589999362257	0.1880616685531179
-0.01510549366123677	0.1067095453250621	-0.03721929942658112	0.2146753109361216
-0.04786735814971382	0.1356222892508337	-0.01482324917168182	0.06223446074061018
0.01884240941893107	0.1541367614918505	-0.01491883987628294	-0.1522454989238905
0.005008079953812567	0.1420255500027035	-0.02782487014918658	-0.1759572023489152
-0.01888477257954875	0.1455641480034558	0.1216007911335444	-0.04188686888010598
-0.0111893459169877	0.1170087011327014	0.07513138498244165	0.003047147877066828
0.01193620419873973	0.06256209850457445	-0.1121180606852152	-0.06088628563259429
-0.004825930279930218	-0.009110478978312617	-0.1579115855135141	-0.09980709756309611
-0.03763184297222839	-0.06455053265831706	-0.04742734866789616	0.01041339239911584
0.0001766291340145592	-0.0559633799358641	-0.01999678998326241	0.07470450207952894
0.02190507588555847	-0.04488123465222863	-0.05801733077505236	0.04878578463594847
0.02328801728705101	-0.04454517651879743	-0.05174244410706805	0.00735385372662364
0.03921427891761115	-0.03124946007033538	-0.03965966278450199	-0.04419165430260338
0.01753196779134742	-0.02304345053182087	-0.03944384992716454	0.003118670720853661
0.01232729689847006	-0.03872232930195624	0.004334051696450042	0.02641047901747847
-0.005816366561150177	-0.03760408189766436	0.09157918884458471	0.05687859428206345
-0.01978860241802807	-0.0248786698368367	-0.006206775045862778	0.1234457650677924
-0.01907431943250212	-0.006316022586764506	-0.07142947724276864	0.2343548537556647
0.05507526066816144	-0.03551130579883673	-0.007977377027971782	0.2166547780868573
0.02720499197469257	-0.1107774274430426	0.02537640262600203	0.05293584927448288
0.008954623721679364	-0.1211469693917546	0.03487231465351294	-0.1258831072129317
0.0280382110505989	-0.08330695501147166	-0.05193343079116179	-0.2163072551304071
0.02589287812183536	-0.03185796382220898	-0.06778179084181782	0.0286593040843121
0.007428625457543539	0.02200621479671558	0.2038909274930941	0.03193456887939713
0.01277645193859185	0.05944623624820151	0.1609698775533564	0.007080881767882113
0.0141350429313852	0.05351026038931792	0.09391381650929607	0.0239782073653437
0.02680877699818635	0.06242865484580872	0.04322363420732056	-0.006464319448364196
0.02950392904403009	0.0434792651967074	-0.00753958525489022	-0.00598761896549739
0.01535373161674182	0.01982452784868971	-0.04630030573551055	-0.004038412693922461
-0.05232185060176481	0.005302920029640425	-0.0671834261477789	-0.1100644321979209
0.01104030409597035	0.03454410436334823	-0.08822000910217244	-0.1891954923546083
0.01637922819090476	0.01816297081373988	-0.06251845354697172	-0.2439490243962058
0.006364230419347976	0.02505086384123077	-0.04989797920200654	-0.1211122011398352
0.01553069632751976	0.01868163766607386	-0.1052321085418196	-0.08858529916890678
-0.01114350109620477	0.02344033484585499	-0.09226465786594171	-0.07574292430527284
-0.0256796103749423	0.0315318439473306	-0.07247439098342617	-0.09363816160704597
-0.00418060578524676	0.01419820221633956	0.1159856434506526	-0.01601339105442254
0.01215493147734954	0.006208052645615698	0.02961842314917613	0.00583643123990767
0.02762115573531214	0.001301388468588362	0.01600460508070756	-0.01436938255787647
0.03862522297279958	-0.03187033699185236	0.02521263722378709	-0.01959743677566161
0.03067509874549575	-0.01180377740649953	0.03964604090344604	0.03828046211790997
-0.04389387783986529	-0.02996108581412565	0.0920466906793936	0.08237303488482402
-0.03957713129498755	-0.03060055007173759	0.02512571030554125	0.0719671881679744
-0.01879071952986091	-0.0283986064330113	-0.004022395986569453	0.1175799033819919
0.01950547348605849	-0.03453657311307066	-0.009466454724017151	0.1888549040545501
0.005564998385717388	-0.03767713183483538	0.02661918968091775	0.08221530056332514
-0.1063923444075999	-0.02068430749841103	0.03285179432108688	-0.05456436424823424
-0.05734951272631372	0.01329847543291976	0.02076284117177235	-0.07465182995263814
-0.00398957294084168	-0.02174559538924767	-0.0627262606665475	-0.1318414832023761
0.0171153006228812	-0.08531999652688549	-0.1052010935015169	-0.03647610593697851
0.03850386249590101	-0.07144124118670593	-0.1111670553243261	0.1128096560032401
0.05582317163057397	-0.03028323535285821	-0.1242564529965128	0.1072563876030037
0.06001439584923455	0.00886909602995269	-0.1116835386856711	0.002581165548398438
0.04879772352943561	0.02763327012010873	-0.01828458868666839	-0.1124990036538442
0.02860803091844497	0.03238730683784405	0.07022609264127587	-0.09669029958224787
0.0063260535200359	0.03514507981663584	0.03662383860539032	-0.0008650007593728444
-0.03988488087823673	0.02218272898121123	0.1084325429934358	0.07725497226703687
-0.1218147766686549	-0.03966279996767755	0.0740060190524231	0.08792096844574716
-0.08213585368895979	-0.1200806243405046	0.01434362155980421	0.0486928478177068
-0.0833318760231184	-0.1031549720041945	0.04141880093176227	0.01959201383313271
-0.08909139637072507	-0.06147316338560323	0.2195356687772188	-0.07783328551802374
-0.06491148969225674	0.004691809851374602	0.09028851488187714	-0.06755497180458882
0.02126786269176481	0.06606010229110156	0.01870583496218411	-0.01918747682111977
-0.01173103374006372	0.1049253215508873	0.0157111642497298	0.0461115754455594
-0.002621957416451778	0.1088100254925085	-0.01998509945109515	0.1458216887844385
0.01885117413867118	0.1474427099205059	-0.01664028234479024	0.1971673892573983
0.01815920713752764	0.1648811639118026	-0.03766602473927045	0.09644686385349743
0.01477896451861389	0.06703338400422351	-0.0390970609533582	-0.03188287509213816
0.0255300203764022	-0.01985072620441469	-0.05944725563506867	-0.06632636409073149
0.004348342791747655	-0.03568229748502524	-0.06370014749954878	-0.06091053758851864
0.02689103357179115	-0.008465302582981815	-0.02822586693895488	-0.1116019769543599
0.02564067902049884	0.01267757277987301	-0.01916552397673676	-0.07591647340806193
0.01186757863125877	-0.009828206763641305	-0.02892532820782839	-0.02429380442603472
0.00624090424035119	-0.02168157388369869	-0.009948236476858781	0.007552146668539828
0.01201571876889594	0.009435763460393438	-0.02480248320041375	0.01434491437004051
0.02993010649361706	0.006652146405565855	0.03809998524571741	0.07580751885749368
0.02211109060285952	-0.006953170470478163	0.2086875538973559	0.1773625093203329
-0.01653771219337286	-0.03090020489236215	0.08342013407050104	0.2880741770993268
-0.02063669525407553	-0.07394740358114742	0.01347868715894067	0.3198705957216343
-0.01202796745788854	-0.09082156703501748	0.06199388721315961	0.176778537175326
-0.01066655871913495	-0.0927660715657971	0.07521504561688314	-0.1125894687904672
-0.0008130521762957105	-0.07511809960942326	0.04737731261738626	-0.3103383959756181
0.03354471327247646	-0.0523027862346012	-0.0365240803107401	-0.3892035440837676
0.0548887263840751	-0.02773139512215666	-0.04206726031588963	-0.1198031418801985
0.05799569385229083	-0.001956740151462543	-0.07912860782605734	0.05348123352303141
0.03322216994976661	-0.02082813675739943	-0.09755120434907844	0.09436348443067108
0.02006129267352044	-0.02210169775090376	-0.08392161989617852	0.08700809431919025
0.02754664727412251	-0.009991806355609518	-0.06454033594980617	-0.1003039844224552
0.02506252961819783	0.006428650728505471	-9.578260935996352e-05	-0.2131534531173063
0.01905213321925623	0.01015558078885674	0.08151298300706307	-0.1615810079430608
-0.003000786613443948	0.01855298617948316	0.0537439251130424	-0.0550175956765727
0.01079875669471917	0.01294466070596673	0.05515378814214427	-0.04169243218514736
0.0118801290228882	0.02405577858600273	0.03493695530651159	-0.01600159795448218
-0.01092433912801644	0.01264379010463956	-0.03795716802128513	-0.02330553318938965
-0.03475909885862241	0.02040734432712303	-0.1328706787227351	0.0348651402193805
-0.04080044556259745	0.01227354099992822	-0.1624758447524942	0.06165950463589874
-0.03396772605195469	0.007253538950772436	-0.09935223110462954	0.1150524406850799
-0.04818159449994206	0.005938112520335793	-0.09433255396096039	0.09760079145581045
-0.04918530911729718	0.014971325861501	0.1241113774377247	0.02142384612456914
-0.01153706593677082	0.04200029899883082	0.06995413431314675	-0.09672770243614322
-0.0104279305408079	0.05163921503793302	-0.08955715011293018	-0.03643542772331749
0.0196523769828182	0.02445059411322767	-0.05428552098862097	0.004188717097807682
0.02271261839974571	0.00608316538393494	0.09520556921112755	0.02880609633517815
0.02254809598884196	-0.005443235523241445	0.09259880250370922	-0.04156487639406552
0.03638816520272241	0.01580434712419919	0.007961886465271521	-0.0658853975222646
0.05087616388371907	-0.005685751539651598	0.07686080006890136	0.01676273452707801
0.04215470567687749	0.01431758121390825	0.04859553064355338	-0.005223881875455424
0.02461102289288837	0.05564299638956776	0.02134665951324455	-0.01736008742620794
0.01072117919664586	0.0559897286226214	-0.02619016253968115	-0.01648085782750031
0.01009893245583786	0.06037452953306113	-0.02816678572474629	0.03240934760872148
-0.01806829475407139	0.075168198816154	-0.05949479499000061	0.07178327423847623
-0.03902474119579878	0.08728271548843021	-0.04070208530541244	0.06469906891065676
-0.0603828361972699	0.08378206651554775	0.1347501896436631	0.0388102413294205
-0.07297753549301358	0.04607267066465227	0.1010696474463748	0.02969731166060087
-0.04109602695219011	0.02460348650428124	-0.009187482304102062	0.01782951819776663
-0.002711279387521815	0.03996208097728704	0.007321396433994889	0.1165875648331548
-0.01876811785667182	0.0042849594799603	0.002150536877434746	0.2333908591120924
0.009574075232796336	-0.0959685111136679	-0.01034388366404334	0.1821704021356625
0.04163508440715134	-0.1828015029463588	-0.08042898155193554	-0.06670389767691222
0.03039003144798621	-0.1656663597199812	-0.1042879749058441	-0.1855894339316173
0.01368462169814902	-0.1574137095431729	-0.102435400688263	-0.2032687817746014
0.01827033853046587	-0.0927538229766765	0.004368145786959213	-0.002994706854467857
0.01212066591859794	0.01577069762899963	0.007435393611134822	0.0725943234469287
-0.09366680822110676	0.09313432500095405	0.03980027142198378	0.1007270909569599
-0.04890171368261275	0.1618397185199372	0.01777745756183792	0.0129540286425634
-0.0293893001572538	0.1897915078844062	0.009050534857498547	-0.06925585578086824
-0.0113937554970845	0.128394886239233	0.007329333500801184	-0.1011335665387673
0.01420724941673257	0.06226625481085841	0.02377989449623234	-0.1016072860721252
0.01537432522237263	-0.02879198806767149	0.004776561726724929	-0.05490870712771596
0.02103854869587489	-0.09525433175690368	0.007393589272425748	-0.01268548938591824
-0.001195848596155407	-0.07910760343501563	-0.01698354055906208	-0.04447745592770101
0.01907737374088518	-0.06226186036245548	-0.0101185702092045	-0.04299032449768198
0.02900380002958126	-0.03160630635044989	-0.0356518956308561	-0.008899647135715744
-0.01741283705902931	-0.006689405479626198	-0.03445966907338954	-0.06375340468448965
-0.02310389617212278	0.001134025360052022	-0.05110421534912775	-0.06273082632109694
0.005244890255851333	-0.005443557298770948	-0.06921402934071053	-0.05338128671553663
-0.02679035252942426	-0.04405907154445002	-0.07754840007811062	-0.03514624963113989
-0.07959822294519393	-0.05094703522125984	0.0115677166388638	0.001373799719198962
-0.03338599311912794	-0.0447522108988563	-0.02835584991112179	0.05035650632299382
-0.01899791253936346	-0.02095104418709811	0.00314625654359529	0.07052255367942488
-0.002255438118242076	-0.006950950108608445	0.03452367195697747	0.09250565499010799
0.02200683891920174	0.01503632067361461	0.1395916394814607	0.04835463072573477
0.05814157765536843	0.02299386197826397	0.08239262726053177	0.06971469015602942
0.07643975056128889	0.01560310486522591	-0.004411681624725602	0.1896227722976179
0.06078056828917087	0.003556168898417372	-0.07386284826822734	0.3080229104487768
0.01060595304622177	-0.02871240479693001	-0.1082279818289412	0.2599702075119176
0.003521108307746491	-0.04901253658495552	-0.123225935587275	0.1067720509862407
0.01425932530456497	-0.04835727574733656	0.004753336155030557	-0.3105906712200314
-0.001903970137326563	-0.07133126241096301	0.1010998888184695	-0.3090348269040619
0.04884297245109925	-0.05390813102423931	0.07214377446501351	-0.2433822076870413
0.05952217878276509	-0.03180278250591777	0.09438457865490139	-0.1267115596168754
0.01849984308440706	-0.0431510461724599	0.05023805462373985	-0.04033789590341206
0.01831253466815407	-0.02648135561645576	0.02678512100105873	-0.004820514712602192
0.007194128330782485	-0.01271606668864082	-0.02654655445489122	0.04488522076067222
-0.0400120328573615	-0.02507481067899233	-0.08030404441387458	0.1070778949248937
-0.05723690809044302	-0.04061076467108393	0.108786969694608	-0.05894924351719406
-0.03571566613715561	-0.01624355327623863	0.1900135760696226	-0.1333573700079956
-0.01408141347595584	0.02033536214167196	0.02710433344339566	-0.1068175403266087
-0.005373902246937199	0.03273458544689273	-3.293742898572219e-05	-0.03942489084427062
-0.01839851369517835	0.03578906939506689	-0.009687376935483031	0.09957639015233835
-0.03389059796443989	0.05121038867098859	-0.03313392414199269	0.00778881877677403
-0.03610770036723025	0.04848447530431708	-0.05967418529278409	-0.01834270856084648
-0.03416173281841932	0.04150651262218027	0.02899026642598387	0.05840989513297492
0.04033724779177586	0.04674136543564479	0.1483889312918064	0.02645660502237502
0.06685269287444873	0.03050024511557232	0.01927307481305633	-0.01454423093633589
0.02869880188329959	-0.05615994446139802	-0.1187122553412628	0.007194309817244123
0.02181892220859814	-0.0243953865927273	0.04851747124176049	-0.0005125225557258105
0.04610582770321033	-0.03569605058847931	0.06857793833518611	-0.001336627583946459
0.02768961830549535	-0.07220274331521756	0.008658219228169575	-0.01820725539975985
0.02224196027844486	-0.0498455334772799	0.02041139520852098	0.03390740846611714
0.01259660734481189	-0.01041179865342286	-0.0187418677701837	0.1764336997715069
-0.01294077502503712	0.06603620404146024	-0.04261001909924269	0.1999494975595694
-0.05661817612778266	0.1231352726663509	-0.1159782526618617	0.2140076056764176
-0.03633960538747041	0.1184497762383596	-0.05945445424520315	0.1947675250736692
-0.000587782939535458	0.08161658405676939	0.03277069350564788	-0.0390782824092876
0.001821322961709537	0.04843303595968606	-0.01005764227787699	-0.1625039299138359
0.02170461671815467	0.03816521764466687	-0.00767015000355244	-0.1509323994549321
0.01750705855242309	0.02721225618248112	0.05075099134368116	-0.1266135648406157
-0.010028378594107	0.01975983249454326	0.03598214098989162	0.007826144520238889
-0.006740409961168196	0.04661851849317374	0.02199687648290925	0.1015202351020879
-0.0004063159283608277	0.01349644322398611	-0.05964107251213844	0.02922308844455355
0.005046440556605206	-0.008039753935814065	-0.03122035292181325	-0.07946774564588566
-0.01688291298550045	-0.01740185571046672	-0.06986457484902471	-0.1285066544500438
-0.06545447763529445	-0.03745652236181966	-0.1973505873089817	-0.1285922530322016
-0.04514242506351914	0.004423343143301865	-0.2102869636350536	-0.1031217036244638
-0.02732547257607285	0.03323878698878907	-0.0213784045784447	-0.04808790682807968
0.01694440469393365	0.02826639076072162	-0.03004876129369958	0.05133957565053336
0.06007538886077091	0.0193814413106883	0.05152579405839657	0.07824430430926199
0.03769619394819927	-0.02716983058775136	0.1350373550388793	0.06885015853805951
0.03407270017192756	-0.04569626975510518	0.1415326402765192	-0.02945046226272986
0.01736104528644791	0.0001132961941735484	0.06654673950707719	-0.05083473788009443
0.04000103301263475	0.01401700140370451	0.03874847302829747	-0.04018815454518628
0.04501968831853543	-0.01260989172001652	0.03850344393343722	-0.01040887380579753
0.02802526353257312	-0.01435574144872988	0.04808077207655151	0.08808247191775154
-0.05573666436881357	-0.0264391266831117	-0.02562033602987551	0.07112858794736855
-0.04798403009521303	-0.02367973019822919	-0.06210867555158868	0.008461705374887241
-0.129552959424552	-0.004379265357907611	-0.02699951735298121	0.02480082804491405
-0.1345009533808249	0.01846474019353259	-0.01246147289876141	0.05302428922903128
-0.05985531689913733	0.0173872093935356	-0.06404654041408342	0.03887837493980839
-0.08977998090479047	0.004044314052381541	-0.01745086005347615	-0.05028710709636232
-0.08110276596508778	-0.01734082547659818	0.0353246736238764	-0.04914158949666381
-0.0491710861641797	-0.03526685136833652	0.03454502459551093	0.00567388485496575
0.00865072498510658	-0.02492430075831274	0.008313602091478347	0.01060757439900603
0.06239395657676241	-0.0132547499158699	-0.030356416993834	-0.0002611932613713654
0.0846312606339034	-0.01761668009985977	-0.03561228478636312	0.02324129595280721
0.09142943363847873	-0.02083000676652501	-0.002246333350265906	0.1114448643433853
0.09535515833926929	-0.03154747993358591	0.02028216986698732	0.2396918063097432
0.03780448232936642	-0.03445298084123267	-0.01838559878999762	0.2930762845465775
0.03009226879392392	-0.02892195949768486	-0.01013536020995773	0.1237279506619969
-0.00313234599589944	-0.03391116817970433	0.01161780352783178	0.02352579143657424
-0.02324754900711263	-0.04103736556836336	0.008689186723068457	-0.237662017021227
-0.03187598497135012	-0.0519137127894464	0.001023696768694601	-0.3867660823232357
-0.02290833427240541	-0.04468243734121832	-0.01888413014364058	-0.307988770076761
0.03521673640742892	-0.01877831232330585	-0.006913198713941493	-0.2414030637917875
0.03784601093702227	0.01133478324366842	0.02183542526395387	-0.07507390158304982
0.03574075182019015	0.01624618355003985	0.01380238869194549	-0.0004535893114117062
0.03827128189772953	0.02823387214886604	-0.02451907700831096	-0.02238203469738647
0.02374455735288411	0.0423932146981956	0.002163319528190855	0.01874519620460345
-0.0002400576588358154	0.03940911335466031	-0.01983427574896824	-0.001227683395630757
-0.0144188401625843	0.0368996107860424	-0.01875446960857163	0.06163889147563213
-0.02687596480470895	-0.009552547300160141	-0.007507118800734562	0.1323743259107582
-0.0245927379551204	-0.06537173484688309	0.005765124432478526	0.2725186613569522
0.01362528756421529	-0.08450665110602237	-0.003506919906625067	0.3449614835929886
-0.002244720561759674	-0.08674922773106322	0.04916241208966832	0.1652710357675056
-0.01261145562940513	-0.05957472995614235	0.03605984281372053	-0.08968064716968904
0.02140953084659412	0.005446054368454666	0.03406173064023046	-0.2596892563854638
0.03696460052863304	0.0278976005094137	-0.03311435779676813	-0.1208466297940107
0.04766252652727117	0.07066923626646671	-0.01742911817423928	0.02764062248196604
0.03790550528749366	0.1446638323601941	0.07573630150592472	-0.0552902433408566
0.03197164908024661	0.1599455787105165	0.03673685081314692	-0.1252136576932384
0.005046650231669814	0.09871613888466746	-0.03410534544165116	-0.1685747979604533
-0.02731608743386531	0.05518699914028184	-0.07352089463187621	-0.08305815275836757
-0.09853418439400823	0.03677027676412361	-0.04977965003253199	-0.005337971495596418
-0.08917716611016249	0.02031527860772964	0.01428528959337312	0.006428966137660361
-0.01561594875751178	0.01247136464288998	0.004951086419358517	-0.01866667864961839
0.02563970814870233	0.02324144657749988	0.007758325199646147	-0.06564650572285015
0.02672891118157826	-0.003634838845421269	0.07122958566444033	-0.06009286014788581
0.05071543669517093	-0.02532839047735397	0.02793771483995259	-0.02287900000299522
0.07369170500801162	-0.03611612272988016	0.02093090215625261	0.006466858126432126
0.0233209829187715	-0.06783916587593264	0.06840554983343533	0.04304307639252025
-0.03704727630746594	-0.04925091342836009	0.02305460437701207	0.05939367023860601
-0.01537756362702549	-0.04037353059924836	0.006885871416704481	0.07299877866020946
0.02578385520800204	-0.02296755748923811	-0.0115953828915561	0.04334690168631929
-0.01447089988566088	0.002948407623475775	0.00301338627232477	0.06418448706272861
-0.01646138274876489	0.02725040356608641	-0.005847275403397877	0.06215582682894816
-0.03548411643697009	0.02196303221431637	-0.01544850516720717	0.05876612094335752
-0.07329960560757547	-0.01809475716713306	-0.04860760979897803	0.004193884956408723
-0.05956506909983263	-0.02649102388740952	-0.06824436778278561	0.0134739546918491
-0.0229470127009258	-0.02005875477286498	-0.09101370221887209	0.02069125984261736
-0.01261059521246076	-0.04224482354359831	-0.08995416837712682	0.02799828214500783
0.01567265545833818	-0.04168305037768252	-0.07258490227471802	-0.005865022061410257
0.02671468475263665	-0.05623783993726159	-0.01903641357616128	0.02839396294531335
0.02804067625317724	-0.05333097260742475	0.04439599606366446	0.03911414603545364
0.03865310266174039	-0.02035830359091192	0.05145829429133941	0.05206621497206582
0.0805234270432857	0.02435773335773986	0.03015480265408933	0.02134086080977049
0.07722952223376155	0.004887281696509119	0.1460056661826288	-0.0178655172846387
0.01172719080917538	-0.01554665119810735	0.07184259934178031	-0.009614317007555271
-0.003128443188279689	0.02524895583687785	-0.00813190920293547	-0.08061379127779783
-0.004437785888424326	0.0480112383097939	-0.007441392936971122	-0.08414937268907212
-0.04213552691801944	0.05988555040918513	0.004181233566460455	-0.01841563144889732
-0.0883938693330108	0.006006395291199253	-0.02735391285605887	-0.00227037009636067
-0.09364282970044907	-0.03102913568012695	-0.0317435773854319	0.03566356333131039
-0.03678493046751714	0.008177528249748352	0.002687024604014849	0.08813296490053532
-0.04855454709822451	-0.01268948598709898	0.004388002859964974	0.1229151894344143
-0.06427320774723	-0.02027432767565361	-0.04489642614997974	0.09107158782925645
-0.04285741622665865	0.01316246611158482	-0.0164843278964782	0.07220885633451722
0.001745478311278016	0.06187215989175825	0.02331927557925675	0.04561709104811828
0.02769618459281875	0.07251693713964809	0.09501500748091996	-0.0283308582802805
0.06070732533662668	0.08175324240233542	0.1213585572279112	-0.06461526380275162
0.08794524291103081	0.05587749019036539	0.0610378816256853	0.02330743600510654
0.06556487513831015	0.05432467138544006	0.03092224843848609	0.01846897689482756
0.0591995743378359	0.0530951165135285	0.01704261520117294	0.0193020168877499
0.05457263378260906	0.02756111471263722	-0.02355836228492776	0.003229318944159501
0.03496960709052219	0.009281305885082768	-0.02242925133019765	0.02261309548640005
-0.02390351379889601	-0.01543104964006377	-0.004160684640820563	0.01681243214243448
-0.03749886742444873	0.006525335329459916	-0.02504730513868355	-0.0674930821953046
-0.04838836794834486	-0.0007571292944650369	-0.0688259645446669	-0.078863054526372
-0.006153653812965056	0.004959571059203318	-0.03894464976160236	0.01455902399849809
0.005031112366929174	0.004116607067126541	-0.04179183374436732	-0.01184422313929491
-0.0109908957979448	-0.03666579656056798	0.000385853252480876	-0.06087475388890958
-0.03386103348410197	-0.1269346365821362	0.06233135874426415	-0.07771453142359848
-0.004810953512820503	-0.1158747890505715	0.07640594403806554	0.04515951740378493
0.02706217324131463	-0.09188669880888392	0.03025982597675379	0.08022180339973439
0.04339124335223555	-0.04412973057806301	0.04637241071799753	0.041434745646975
0.02816108709095098	0.01144256913348274	0.03881941025176313	0.007576192216311114
0.01691676988542803	0.03217251780687262	0.02387268367278416	-0.008677736563055753
0.003818515351894297	0.0323396754905046	-0.06118468109573202	-0.02216941426638453
-0.006385196192635108	0.05122179602646698	-0.07112389978796826	-0.02250802650862952
-0.006756346327519456	0.03303440820594846	-0.05193264484654339	-0.02638665086566081
-0.004293271161173861	0.01759638791083108	-0.06661144898558084	-0.009206891543040153
0.0318299236979014	-0.01515255802154464	-0.0478707985722278	-0.01873903614050344
-0.01637062095302515	-0.02216247749078629	0.03984721491367604	0.07445628278259167
-0.033482153008629	-0.01604093080138781	0.07827648904482647	0.1457942939482858
0.03314118413213582	0.01268618167005568	0.02454695776883229	0.2100800437875295
0.01555598899455064	0.02268892742833228	-0.03034162509430799	0.005990136078700694
-0.01578967079152531	0.02669218368468123	-0.0424590008337946	-0.17046904168609
0.0003705074876657105	-0.001988508445250761	-0.1062134093719756	-0.3310027003693082
0.04108925257189669	-0.02853703059534926	-0.2205736744366906	-0.2575198327072767
0.01309282687228607	-0.04401726658095997	-0.14023248505362	-0.1966772850055305
0.008227971066856105	-0.04272448647490025	-0.004436353707447927	-0.08202472867504965
0.004472481945931021	-0.03678422683611376	0.2254117163804683	0.08786107461405838
-0.06966338625836417	-0.06182816151004101	-0.01936608689629147	0.1012395681733634
-0.07214456813954719	-0.05733073580910408	-0.01729140954575835	-0.02049834831860668
-0.06630614959016647	-0.05281594686142092	-0.02281976856321741	-0.01167037801634926
-0.06653451242470759	-0.05075589630067125	-0.05696028139823507	0.0644297228742147
-0.05943461871012345	-0.01752122448096099	-0.02642071962738862	0.1245857331602221
-0.04795441279318012	0.01545064389952655	0.002031668961885851	0.1814225072987331
0.007401019064407282	0.04193500971767328	0.0310644560681894	0.08329003368243779
0.0136692053769919	0.06391948768626264	0.0107791746178078	0.05522369653186443
0.006489476988459719	0.03056313848832203	-0.02673049926590411	-0.1671851203725625
-0.008080748369369201	-0.02537842150437309	-0.04376912980684081	-0.1708476682136915
0.005946233366444675	0.01082893938782175	-0.0237795663429616	-0.1218796308628539
0.01017823928047058	0.04581848989790134	-0.01595141088047052	-0.1541378979995473
-0.001793327643142584	0.02854724778673686	0.006856496483406798	-0.06400849097837841
-0.009286246513708334	0.02418624513099859	0.006575311454132031	0.01917318213587916
0.03860343793773307	0.02059367029231347	0.04596386473657667	0.07183610075332969
0.06883303430471242	-0.02990888142906075	-0.005475160476486925	0.02490191973447992
0.04329338928983003	-0.06004026540457006	0.004146647333204962	-0.08104405935925972
0.03601501750378113	-0.06166509588861408	-0.007885352512193073	-0.1980643526065821
0.03350969841363238	-0.08069972054018736	0.09100511711759927	-0.1072325789838953
0.02927496663546996	-0.08966856757954607	0.1044061948609115	-0.05955670783010168
-0.006460712702639072	-0.102216890291595	0.05126964123521326	-0.01212966827969884
-0.003261217109668884	-0.0290297472765331	0.001752748915279805	-0.001687525241689971
-0.02786680562088812	0.08255878970658247	0.02565154536067469	0.05441103767630183
-0.0201498680784485	0.1215818665656428	0.04200619588782142	0.07515091587531279
0.0133540422665561	0.1051242008658316	-0.006033928857658332	0.03657377746791499
0.01322657735365233	0.1036114417042746	-0.06074364074699461	0.003854154355948461
0.03283277019183083	0.08855804017748017	-0.02704105252914696	-0.0517258866674981
0.03270444388564359	0.0474557046295825	0.0149706731853456	-0.05308007536824389
0.01910895791307777	0.007614157644379601	0.001996418850550994	0.006775708159240773
0.02758407984173432	0.02564603430939327	0.01349641966972502	0.144677768380805
0.02465283093144109	0.01703748910038237	0.03290481813909159	0.1990268579616349
-0.01733707170048205	0.0007357179300357067	0.03177684696671162	0.1732239293148093
-0.1335243369780287	-0.01307298660747804	0.01227336870012969	0.13647753033924
-0.1151759487388285	-0.02976408015371683	-0.05934482736831122	0.06424235145886915
-0.06327827965215192	-0.02214561617216798	-0.02674491660682556	0.004663777185689824
-0.003509307167511205	0.01987953434970142	0.004018918071589696	-0.006007492829846624
0.008290616368843878	0.03309748783949246	0.03143579520088442	0.03784905866654578
0.03790237571135022	-0.01161644662851462	0.02990226164311262	0.128646356035427
0.01757596417296746	-0.04521690297679483	0.0378642723977963	0.1700249909915173
0.03002405643769984	-0.02305534908033948	0.03562208746014062	0.09833141206929678
0.05851080947791861	0.01326099988228812	-0.006883294732162167	-0.04053061486569774
0.03105811768324902	0.01377569110460765	-0.02742186899187244	-0.1034773470444867
0.01290910255268636	0.04717134328904933	-0.09305001465320827	0.02754692373402406
0.008009277598080809	0.03251040168109701	-0.1417728146973622	0.1004196853102568
-0.007540440898773046	0.06831820183025032	-0.05819345929354636	0.09142622661394911
-0.005343019281160566	0.1292049380904481	0.09082404405537095	-0.1251989505569027
-0.01079637469242526	0.1034181824713504	0.02521875237254903	-0.249418063617975
-0.01248650548925104	0.0215631241608844	0.002140917172194095	-0.002715729545612876
0.01811041525307994	-0.02800564197668951	0.1199258111035093	0.06024650661398236
0.02779133060515343	-0.03636377710618699	0.1707106167105668	0.08037494846247697
0.02449241828020513	-0.01260117542303489	0.06836563668428272	0.2487218016125917
0.0133015730955848	-0.001192914609180345	0.02379211527209814	0.2157361023179822
0.03221520398512068	0.005300644954685561	0.02666809332636502	0.0541034322128516
0.05413732134283841	-0.01119213981969834	-0.01717964100167403	-0.09564072684805858
0.08201625473295795	-0.02028360899420478	-0.05235912004046511	-0.2265288684571134
0.0605603647633208	-0.04926393564046592	-0.01605253155083716	-0.1334360717940322
0.02649193254120314	-0.06280053051410385	-0.0003192369384848283	-0.01588299751140467
-0.04537521752547849	-0.08517360735244459	-0.01194322241314453	0.01372876795681004
-0.05987254227662662	-0.09569655405757738	-0.03424818564785342	0.02638418529280696
-0.06311222662490787	-0.06599907028423037	0.008585903565453631	0.01118819484521792
-0.09802776506133991	-0.02154431115026061	0.02299836763873821	-0.004668004159169242
-0.0766459254199952	-0.005599946411128612	-0.03595144609892952	-0.03604225541674738
-0.0226706191119913	-0.01552627742830414	-0.07123686408366542	-0.1288709882169741
-0.03487907643672845	-0.04075478081907748	-0.04001677952915388	-0.1931657270672726
-0.01961147378281213	-0.03271725405880389	-0.06150557244185196	-0.09889110476590926
0.04394925227517508	-0.01988109049711383	-0.0274845909391008	-0.0004263808959942613
0.05306947050478946	0.004239702999624274	-0.03670137870706227	0.04278950932213636
0.01885587227876147	-0.007080713148949608	0.03331622160351093	0.03802990668068307
0.03545305490356123	-0.04707169277181876	0.05897435807706645	0.03843751582415536
0.04423357695786711	-0.0432663588823787	0.1697925942586377	0.1440828683043643
0.01154540715577475	0.002272733628687753	0.1634015234078992	0.3149561223261524
-0.04477921730052203	0.01395562679916462	0.03768541189876201	0.339453646828293
-0.05361824252230265	0.02368695668187833	-0.08018437657558239	0.1745152384854594
-0.06074553533789812	0.03230887751603404	-0.1305364418104774	-0.1639787848965824
-0.03518127175507703	0.0218273792542419	-0.1361187238354072	-0.3040004635631742
-0.03579671090254518	0.02427501645662418	-0.125014829378097	-0.4220914663080113
0.05324705924334742	0.01169998328983783	-0.1042261871649864	-0.3457425884682184
-0.007257950665705602	0.02343136864745566	0.04520669663140871	-0.1617199195754032
-0.04772706258107713	0.01334952046846952	0.0432126863495708	-0.05595396302115976
-0.05771745479015479	0.01496083912686512	0.001342619732351876	-0.02296364762689064
-0.03423212557821252	-0.01559232171924647	-0.008163123259971938	-0.05084288924356532
0.03595986649526972	-0.07048841912607512	0.01940755892384651	-0.03512388966199429
0.06855902782685903	-0.04944517108544597	0.05689281274334702	0.09756042984933183
0.02387359646033111	-0.02088688709720919	0.01297619687000799	0.1202794273973689
-0.003338476449319895	-0.0268503357924158	0.005317516263389458	0.02409937054480526
0.02593705885576544	-0.002674484037029651	0.02262306580365799	-0.06071399491874793
0.06066998371078722	0.02225470305768144	0.02700975697222385	-0.0864024508126781
0.01051253111731222	0.04334022582126774	0.01290155841119825	0.04554673339726044
0.003986623332720728	0.06401154464029686	-0.05929068241810385	0.1244288073320153
0.02711338123781244	0.04280289246100381	-0.1142271063935349	0.06766100686873219
0.01083007288861964	0.04679777978608111	-0.04060667158280647	-0.0779433393421943
0.02675251340406826	0.01249921548320056	0.02382721341274441	-0.03379708759669028
0.02754250614905539	-0.01473601858742542	-0.08727775885894416	-0.05500942155621092
-0.01809248968674261	-0.03701295842662145	0.0481202930051907	-0.01789716939631521
0.02807999200956078	-0.005143438997949883	0.1289395485956787	0.07933992496850319
0.02347627124400449	0.01083236523439672	0.03970155902383787	0.07680157591258968
0.01492918318843002	0.02981073081655251	-0.0293591736654524	0.06569652692488151
-0.04549401562891036	0.03602427553632859	-0.005272525753930943	0.04870651221525081
-0.02035266923775022	0.05044387842203445	0.02980378368440219	0.02711553737098763
-0.09911261482966316	0.01444232303338333	0.003505990614179852	0.08265328568334142
-0.1443706122601578	-0.03186150458274708	0.01835349159450809	0.1324929373299443
0.07678879896406961	0.05161054432392155	0.01443498039979692	0.0919403837000758
-0.01645732058192988	0.05558296042474398	0.04986350657031417	-0.001519961566918163
0.02056218754210062	0.04834594963302931	0.0365470618262587	-0.02052203646771829
0.03301037878285565	0.03557364535890025	0.02322687046276411	0.0613847801369983
0.0493338634625318	0.01378041912421239	0.04642478054025735	0.3043886681563848
0.06094168588231599	0.009888507541360525	0.06497207882390528	0.2973641437148666
-0.02802805500584294	-0.01346089306526197	0.01770878321194348	-0.02366311803140436
-0.01513383368016476	-0.02130313322234494	-0.0437173869145835	-0.3779836599573584
0.01889003105712525	-0.02673706793558458	-0.0673151410269843	-0.3758371052186061
-0.02274445734898721	-0.01264351721995371	-0.04455030532160099	-0.1435924768165742
-0.04065133659030725	-0.01038957541715311	-0.02446994657116237	-0.1202588462746995
-0.08463853707803104	-0.02255541729890569	-0.1265758909602945	-0.05784821604490426
-0.05394819069957529	-0.03809235662645612	-0.1322127987670588	0.04943210733334035
0.002694014239470403	-0.03092358847029119	-0.07239487390308379	0.01468626804267695
0.02351800281282064	-0.01797954739759169	-0.1111597630008129	-0.009411505518877976
0.04411164633189454	0.01026924541937605	-0.06943241560751531	-0.006108720804253386
0.01088239992907463	0.02696393032536336	0.0721924668867822	0.1133684459526351
-0.01804446219199231	0.005442317945704859	0.104065221234565	0.08581334933521796
-0.008691970048333907	0.02760703430385641	0.06829528818308751	0.03657027030073549
0.0330310039876935	0.03892388835642412	0.0005765752471726736	0.007850690099683286
0.006427960239262511	0.007572321740582673	-0.02618890548569513	-0.0693421609152092
-0.0297569259204182	-0.01467645760332153	-0.03317159526229183	-0.04311321127933995
-0.03063761524248474	-0.01932138969975927	0.02023672309793187	0.08430978228819347
0.06399105100213036	0.002750872087239801	0.1781403653225394	0.06650876621406633
0.05784685455999364	-0.005575336879566887	0.09682774868490297	0.0148728838964295
0.04003376032711386	-0.03231186019143871	0.03724819587147127	-0.1214061736110008
0.009008538614746589	-0.02724961979464963	-0.01726211173321298	-0.06815089715947417
0.02523081522835195	-0.0326102226822329	-0.01558462485370521	0.004395111253844132
-0.001911643998588007	-0.01950927601268768	-0.01333519847513524	0.05282354633855424
-0.06984307728083763	-0.01897866432148657	-0.07293410900389222	0.04790610276072193
-0.05625372934684474	-0.01346208038261566	-0.01849759422300464	0.1686036544126688
-0.01121213667528505	-0.01320627221764507	0.04002918056118143	0.1983579081788026
0.03186825451383588	-0.02968731186247564	-0.08604931001849232	0.1201912182905337
0.01196180229691991	-0.08339983191526221	-0.1228940070090262	-0.1500619538679379
0.009330157322304557	-0.1050525752852296	-0.0192280479988125	-0.2292871936890271
0.0380433337696692	-0.1342623836713443	0.07346612511165046	-0.1013335056814298
0.05207800695806997	-0.1128806315304237	0.07530601943201026	-0.02749696081787351
0.03176628210633764	-0.02768709979761614	0.01696508685665313	-0.03477729372867705
-0.003488003177634053	0.06321592711320427	0.02445945996340088	-0.06624200284000639
-0.004939169694257921	0.1576728947353913	0.09043015443078128	-0.02422644007254868
-0.01206726710185611	0.1931121232844616	0.220905437950159	-0.03029662880580597
0.008202684278430177	0.1894851483653811	0.1111546273268907	-0.03693747207504166
-0.0669561823783841	0.1306345356356045	0.0385585132612386	-0.02461670412700598
-0.0800015356794037	0.0351635513994745	0.02811389955505051	-0.06691999059542833
-0.01088997044478586	-0.01112120168662942	0.01479236967310277	-0.06449613470218453
0.003590233318477283	0.005477615643777481	-0.03180824498015737	0.04052591151280868
-0.01699281005468026	-0.02015209539911851	-0.04207059611666709	-0.02003711582717652
0.008593618639465714	-0.04177128668823592	-0.02242768598039546	0.02029692846093771
0.03215148960332615	-0.06619617603457954	-0.01538908442635204	0.03591031973433424
0.02853402172466629	-0.06867268239153315	0.00256954298205987	0.01066608092033363
0.02552789669316981	-0.0525081998049191	-0.0178610633353674	0.02975163735664229
-0.06139424593516354	-0.005306483429724589	-0.05740309126128827	0.06591347450050039
-0.07599139023496604	0.003564757380403996	-0.10701982030404	0.1761763171236256
-0.05044348315139278	0.013803159400606	-0.08751380834602912	0.1219573930258098
0.03213859071670971	0.02012338573785339	-0.07745572004661413	0.1110937822241023
0.06164013444745393	0.01463632218353848	-0.09016055518533875	-0.0573249169921661
0.01660538911281032	0.003431508772745706	-0.03612139178002026	0.01816298734033981
0.02175466789308559	-0.03496924170977216	0.006495020418503047	0.08396507848874056
0.03362597038887755	-0.06957590708986179	0.006591547860141217	0.05059622124217438
0.01549899897378461	-0.03971538968652773	-0.01503566368555367	-0.02301197460109547
-0.03577946917300164	-0.03328775057625454	-0.001431620236544062	-0.054030181260908
-0.05625210535093157	-0.02124383069667408	0.0260391065774069	-0.008667993733461025
-0.01791069676462862	-0.01470705730879636	0.005054281762144828	-0.000312084781094205
0.05616880594933479	-0.01896440430484802	-0.02019117206917854	-0.0171455973687811
0.06904803997397978	-0.004413415734220954	-0.02270919747160704	-0.1047971066488135
0.06624675151667453	0.03720375104258133	-0.06927201588711474	-0.06509243016346285
0.03694423436909432	0.01569709094742237	-0.1088985467795449	0.03334598640697648
-0.009267784425065401	0.03254397538211152	-0.1252338192553191	0.08186739124227048
-0.01658680657996585	0.03728180689202752	-0.1446154410851838	0.1075468735522324
0.006293696447992466	0.03190221555196732	-0.07885380298429835	0.08151165115542559
0.03970366445803195	0.002234528861043519	0.04527864792409915	-0.04320628980694966
0.01303652423163171	-0.009914093147105145	0.1897133756559051	-0.03867907868605563
-0.01156493588127581	-0.0005968533978220183	0.2055536824451003	-0.01988700063777341
-0.018624928853011	0.002250061026555708	0.1891431392233206	-0.01003467798145766
-0.01202723713614647	0.01674484444660627	0.08186753649008693	-0.02924042701555708
0.04423083812119931	0.05378995840905182	0.03247945040003682	0.05780825876818174
-0.008683548408072332	0.01581381716303601	-0.03140171216893733	0.07865996337053396
0.008333121307905946	-0.04248532450374166	-0.03392186706094169	-0.009753144375784461
-0.03931601108449222	-0.04936698524630029	-0.0410892865466139	-0.1983352086149079
-0.02840920173904088	-0.01509983714243624	-0.01310340989819994	-0.2602845502900355
-0.002039930996619224	0.01276558866490601	0.06118608630423726	-0.1711429312458902
0.005249457927157104	0.02051573802262011	0.05050165877455481	-0.07092085000875056
-0.0306313370607483	0.01269411773178517	0.004730521697607302	-0.01835487407171899
-0.01138383359196242	0.01869054028925309	0.02245634402973648	0.04324190463438993
-0.01217508757382093	0.04867773062537821	0.02781629891504836	0.07252634858659603
-0.02897630785289887	0.04309128275155331	0.03403303955041493	0.06942123540559129
-0.03180139677094557	0.03597307132866333	0.02473743108178594	0.07521625090092279
-0.02391608644881124	0.01283169789460127	-0.03201342525246251	0.02476510661297163
-0.03891372157493069	0.007416721710472012	-0.00940482641993373	-0.01336452988808012
-0.01136505468669807	0.01451691767203382	0.1046201347574775	-0.05722327607551629
-0.02603754271001427	-0.002297945059874704	0.06259190231863597	-0.03889170176113402
-0.02365003288338316	-0.02264601013824386	-0.01527055892645685	0.02316820041007202
-0.01349093379870516	-0.0374738747358488	0.002673813825609121	0.01533461353134212
0.02914418601028802	-0.01267405373354827	0.01046251089824447	-0.009237445805309564
0.02967580968722451	-0.0322582372308497	-0.0389966865702166	0.002892657877754921
0.01437220523006807	-0.03412109178910983	-0.1220015094160993	0.01462002259313676
0.002813774152971134	-0.0440143081173272	-0.1466836006493289	0.06314457597246967
-0.03135627995778043	-0.05367971136460676	-0.1038631639941839	0.1317102748797455
0.01187712166990223	-0.04734504701656109	-0.0153827362792231	0.2075952416864231
0.01087203764862621	-0.05887470693875831	-0.02104308700405395	0.1494836888587772
0.0003591215159609504	-0.04170393101630156	-0.002744161760286936	0.05893285693823199
0.0154819147813391	-0.02557635428382009	0.03447891228299654	-0.1028077638326645
0.04678553904827738	-0.01977632016526627	0.01848858914680526	-0.1256187615862742
0.0103948316183344	0.04779380121771105	0.07047049194919165	-0.1003545944833458
0.02874914213560393	0.07403730200711241	0.07878948078933332	-0.05310260817300912
0.03337918615185383	0.08224220363649126	0.01412041435212247	-0.04712483289813579
0.02578420628354547	0.06797557195900338	0.07470469943538149	-0.03702857841821107
-0.003172745417011443	0.05495437704714069	0.09838866711675916	-0.01302038174592323
-0.02773124938413711	0.06190214122515606	0.05270820739312644	0.03005366536444158
-0.01468028153059247	0.021246435769575	0.0344818307625008	0.04210505507258607
0.03468750609055454	0.01424304705250002	-0.0114135236529025	-0.07549423968044483
-0.006441062029599789	-0.02548355272192945	0.001438524223749909	-0.04183736795305802
-0.03655502296570032	-0.05537011020867213	-0.01436255732161655	-0.01083298257718526
-0.04227654308329337	-0.07614756093439075	-0.1017694610187929	0.02419410169045316
-0.04980468309682038	-0.161511492899178	-0.2573339965601199	0.3163675284117244
0.03260682477448062	-0.1832640712803382	-0.2600322359650269	0.4154225868717228
-0.007663926024559605	-0.1383699829776957	-0.1716872517862739	0.1524063996833395
-0.0381357602754798	-0.07522122120046063	-0.1221180695151243	-0.06824005912208918
-0.04549112557139005	0.05474824345844428	0.06758125940473919	-0.5228074150021749
0.001932615455645255	0.1292543737598523	0.1682381192386261	-0.1748978333527782
0.01070401462669496	0.1647863969218779	0.1987340887143467	-0.06730295670554287
-0.002006952263050996	0.1765079108169934	0.1624885526432796	-0.1028347557009036
-0.004185322247304868	0.154129627627911	-0.02521913407515633	-0.05633721557718342
0.008265433933072729	0.1217543828102377	0.01268484251684236	0.02225201693440179
-0.008465474523491837	0.07272923820543775	-0.0182904625628726	0.005803927298432223
0.005998737588415574	0.03940143867412055	-0.04941629211648574	-0.06198503618014707
0.006222512405401281	0.01379608704879917	-0.06846124792930861	-0.07562266238956346
0.0216316753149737	-0.007355341094953441	-0.07127049396012383	-0.09498796217845246
0.004469391634873228	-0.01819242558211503	0.0207075258068633	-0.07336378618624555
0.0004174999269167934	-0.0200376355042263	0.05020528333783218	-0.02646062018315686
-0.008234839961229255	-0.03267648969526691	0.008786078659705435	0.07089865221007376
-0.06222029426610675	-0.08724200802690243	0.08527858981222941	0.01619147849188839
-0.0510452310771003	-0.1045426506303231	0.06426185372202191	-0.04023913338095907
0.0282225358221108	-0.08314312080255282	0.01984763986219331	0.007667175105533438
0.03329152125795423	-0.03289592368067037	0.03916131188543341	0.08078833798149192
0.1071126642161474	0.0350755723282796	-0.02164053452258568	0.1020230674735832
0.09119366186623758	0.01887157250221088	-0.007194026476613496	0.1692618227774165
0.04089589748921085	0.0237984105352762	-0.007985437377517956	0.08273726182498936
0.03691760275653421	0.03393111307240015	0.02389964376362332	-0.07690947580672024
-0.001402648634846996	0.06150770445599544	0.08680877818753843	-0.09712018972930099
-0.004521281399630517	0.04940759104377318	0.02698960353205522	-0.08370372446097844
-0.01429316344941501	0.01391437264106487	0.008065140114879698	-0.00975182903947531
-0.0006006342725213227	-0.001323241991176804	0.01881129683151703	-0.002938758920552587
-0.01429834549443292	-0.01162975273979859	0.02495470490981058	-0.03223017440932134
-0.02363625918977204	-0.001113742772870268	-0.01369865921709709	0.008444500992754666
0.009251172529679431	-0.004056972129098012	-0.09425203059010263	-0.09213001583785171
0.02658955818285295	0.0008035128052372476	-0.1768862033356599	-0.0776456359504125
-0.01707431175051181	-0.004349259887553794	-0.235754416296545	-0.04896064042879472
0.01577236935786196	-0.03870002236201817	-0.1199618799050024	0.03530799314040604
0.03418502157897586	-0.07766190925645428	-0.008982294131013016	0.09656432163073088
-0.06676447383569462	-0.04514440461951819	0.1694001400297703	0.1670091638813191
-0.1079417356857399	-0.03929025349743095	0.2231067135771922	0.192604059034381
-0.08067982654150968	-0.04022952304091463	0.2310554230905197	-0.04143712945984412
0.002156424073993207	-0.04415467618925649	0.07124356192598624	-0.06929197182683534
0.1151993424654906	-0.003809901315739342	0.01799215306565507	-0.06221083980117084
0.02108508571143358	0.0236863574611915	0.03429136943180915	-0.07610065089444357
0.05025340669316285	0.00730926133081652	0.03233555993937084	0.009793552472451362
0.02670641289378815	0.01653707765182854	-0.0006476050579269264	0.1017849193681627
0.0002694908407939261	0.0005090790614136963	-0.03203302142043769	0.1265757224519095
-0.007593078521009704	-0.03269287960035241	-0.09266416959219909	0.2102336775840861
0.005264179307870031	-0.06435560402478192	-0.1021482188109503	0.2999899369639206
0.02367687318280537	-0.04719016138381847	-0.02916032675484103	0.1871617292474165
-0.004336918830072917	0.001590911551469618	0.01650116518437142	0.04433905399933554
-0.03518840589933427	0.002617264285264059	0.009922617893752983	-0.08027820503877868
0.003820228901941678	-0.01928133109320954	-0.0007904054831923981	-0.1485160445111565
-0.06550190195278359	-0.0953740361174952	-0.049103405765601	-0.09345541618683195
-0.06860129013480279	-0.1307765883727804	0.01026663521419716	-0.02359719938517656
-0.02096481192106875	-0.06086119738506232	-0.021901073998152	0.03305457475332417
0.02466841644510076	0.008009575428025446	-0.08063381294609608	0.06037897794373711
0.06328766172217853	0.06215150443931814	-0.09298061280884598	-0.005513516383375675
0.06024532589769461	0.08968944556400706	-0.1179757211837508	-0.05708350994605159
-0.007547205031277603	0.1557047423024778	-0.05089977396326614	-0.01462024424720348
0.01136845812012047	0.1417012637204045	0.06881666826877295	-0.01978866165604609
-0.02276616928458742	0.1700484023161663	0.1252768566212079	-0.006970831692279169
-0.01336174100296002	0.1301914077332519	-0.02736413592217226	-0.07793774279006002
-0.01152650165567686	0.06280823177479485	-0.09411884164821215	-0.04953979393580626
0.02564848570097054	-0.004351530116403332	-0.1093621229595264	0.05579882891685187
0.07595807105801072	-0.03279780424087602	-0.07982549710148727	0.1935866637354332
0.02135328726877506	-0.03904539212112986	-0.06354958834037157	0.1807827764729873
0.02723806111635709	-0.03269363406667544	-0.04892627013153381	0.02781021289087902
0.03122516856254908	-0.02263203699397784	0.002048825899364124	-0.1698646213475212
-0.02654627341616254	-0.04145919970787532	0.208615633031262	-0.1365985454332222
-0.1151745564111877	-0.04083095877159163	0.3915136979010577	0.03859585182553145
-0.1130030797711348	-0.02226263839370031	0.1066088017495868	-0.06626150479454507
-0.01453086061595487	-0.04838968462147814	0.03129706531571182	-0.09152833739934393
0.001659410147050989	-0.05965132800622704	-0.01829510828926261	-0.12583919655665
0.07513450680506786	-0.005002389720670993	0.06752107659791844	0.03506470181845711
-0.01359014239554851	0.006700698417052604	0.07658888960315403	-0.0807525651580748
-0.07826363104493095	0.02939882347714161	0.2014203599989252	-0.1167157693587657
-0.08051348879994814	-0.004705116721505679	0.1564657766464816	-0.08172847646070767
-0.05167928969677916	-0.04036171865863038	-0.0007838267070243384	-0.06517614871553275
-0.04405721704261795	-0.05635557639460079	-0.05929053058476415	-0.02694523551275033
-0.05313436748703255	-0.04855166508852513	-0.1107098332693843	0.08392630366929321
-0.02762018532143934	-0.0159127591857136	-0.09798720915944065	0.06243590177673157
-0.005477114145487057	0.01586837539654641	-0.03929385711210796	-0.03373638554450804
0.08007535288098858	0.01549026278949675	-0.1242190976667588	-0.05924910404827852
0.06114214592707036	0.01048200854561814	-0.1052930395755816	0.09368551681712554
0.02417931566006383	0.0253325717560553	-0.1501972122718218	0.15316034532891
0.003991328868982069	0.02264225299186121	-0.05268205408356282	0.1420549427112224
0.00979468242613888	0.02128635275208607	0.05953374267139033	0.003822538679610425
-0.01207916382519387	0.007668060268536911	0.1135932242364575	-0.2006267728108949
0.004917187908283688	-0.004621521823089701	-0.03957960269300091	-0.2594649889996965
-0.001779470990591631	-0.002921028194568856	-0.1039616687412519	-0.1023761024380503
-0.01894116971671886	-0.01336468707131644	-0.1092448526461998	0.0243806275144562
0.006542560773232221	-0.04272432991505543	-0.07254804284455128	0.07773904193263013
0.04881351584552519	-0.0339170351222997	0.01417846883797088	0.04913346139871206
0.03707978786980133	-0.02579805036481257	-0.002569938038969501	-0.03689160257379036
0.0165107844669227	-0.002920690914803412	-0.06244088275255691	-0.07468652234966132
0.02518439462709601	0.008569819981016568	-0.0565551796172295	-0.06861397164222821
0.08696649985619107	-0.03280235970422252	-0.09937085640123546	-0.1227683439424315
0.01398474538969189	-0.007209744780834014	-0.1147237019919156	-0.03386653198136375
0.06944655751757145	0.03446303629706433	0.01114945626422429	0.07196974694180737
0.05666422378039574	0.06407094341467209	0.09148949035142089	0.09492745095177045
-0.004165307786113476	0.1007630131292919	0.04874477897274308	0.02077643918569067
-0.02891782013635808	0.09092359615468935	-0.005938466142697949	-0.03326159182654201
-0.03849827368123686	0.05818608599413254	0.05148408790181381	0.1120871108570496
-0.01550314759857239	0.05485206454257951	0.08903709963271429	0.2733786716922483
0.02257772453711388	0.03273307528106189	0.080225188705982	0.1375800329457137
0.03740573768033315	0.01953099055028029	0.005817215385845797	-0.07530897204268264
0.02444587695758215	-0.02237275575225073	-0.01660418403022507	-0.2160868131042615
-0.02544321409769739	-0.04725549214957762	0.03327209385204756	-0.08909665288029033
-0.0686922041756399	-0.062123170192995	0.1873425468583815	0.04761433382262514
-0.05265251232654861	-0.04955233420759467	0.1327708112406102	0.06631079454608826
-0.01045909837563361	-0.08494988225771122	0.07198718800441072	0.01982282994611124
-0.02424947203836961	-0.06738393960224466	0.01624438628942975	-0.06769335726871205
0.07589367230881949	-0.06792577718817971	-0.0786509270253547	-0.1182749173475496
0.0167788473052145	-0.04678560984966944	-0.07694817907276674	-0.1150479480549565
-0.06349627162739219	-0.013808088135691	-0.004481765400094664	-0.1134466834241017
-0.0595504972298289	0.01562667986907171	-0.02446008646673419	-0.05031330706869749
0.04991048726283064	0.03590953361595362	-0.02427496803465921	-0.01280670478421531
0.06072834524295446	0.07267669815778768	0.006599491447020782	0.0932388291945541
-0.01987440318564962	0.08426196719802141	-0.041944725196572	0.1373495393110792
-0.05298390696168138	0.04828284206775313	-0.07583692884557967	0.19757482751946
-0.03337064910037393	0.029490171100455	-0.00585541280680851	0.2638710672168285
-0.01385725018686967	0.02538458417933778	0.01731736492822064	0.2080389396404943
-0.001200106820943575	0.01470953186860394	-0.00420926683427051	-0.09480927255194373
0.05173937652701505	0.006100568518593182	-0.02574862391469977	-0.1924513325896386
-0.01746757169953157	-0.01761049961914547	-0.02254723441828886	-0.07189100569726606
0.04066623603605615	-0.02455209972661123	-0.03694949767723668	0.01414636300356355
0.09467419897080798	-0.06653260005191228	-0.06668316765824302	0.03298192162888538
0.07532275543431459	-0.06981347495449795	-0.08077960590219098	0.01618347501157694
0.01717051295913299	-0.0451858155069327	-0.09645484401825839	-0.03670147794297803
-0.0830329870852341	-0.01765313021288413	0.07662320698652275	-0.08256827822193674
-0.11085161658666	-0.006521701837351674	0.1745241002057636	-0.1490556180891477
-0.1135893963844645	-0.01787589464696623	0.01272939827726808	-0.01305800044791054
-0.1713922262169876	-0.002733383922100396	-0.08149211874143283	0.1050122418972914
0.0271037741849187	0.0639357047527397	0.03492039996994287	0.01053284206962832
0.02767249818324991	0.1145381769048717	0.04382030580974057	-0.05189543280970707
-0.03191839449782698	0.06131204188275258	0.0008335340287439221	-0.05575063362535488
-0.1127535798814583	-0.006720261064310575	0.1142712105871363	0.03434477004953194
-0.04231773091507638	-0.004097377174057093	0.09927404987637894	0.04785445814289066
0.02454851765496573	0.03266621059081563	0.05895137188099703	0.03008319189264137
0.02897262409403327	0.04991175990776428	-0.01054536133907051	0.001313985802448768
0.01299796915663346	-0.008522622990514633	0.01967446279686016	0.01326311817896701
-0.008985402247462811	-0.05449472028003527	0.00820977671230058	0.06264730095845594
0.04470357299404557	-0.06849235111682363	-0.04227994456129668	0.02073263380747628
0.03689976684983803	-0.02702509936387963	-0.1129045593072969	0.001309675956367707
0.07174609654822549	-0.0080035589802322	-0.1270269740278669	0.001778025564243434
0.1111529580633267	0.002721082688494886	-0.1348647773339232	0.03483149739756093
0.08369932545392751	0.02723294531921784	-0.1116857137135341	0.07795653449555466
0.04584360142877246	0.008983560208699131	0.01853971978767252	0.1339176468907946
0.003829022869755951	0.0107579171419698	0.1562279846862762	0.06246114620732945
0.003911498730824905	0.01833741988797388	0.09148794555407082	0.02655011898968433
0.01462344029997428	0.03343723031803224	0.1563975433579263	-0.04650990884028833
-0.0169876205903962	0.02390238463104743	0.1145651402262242	-0.03333485747956066
-0.0121314147176835	0.01273177361986192	0.0552648136611798	0.04433974762454296
0.01327818806942649	0.0002134368832841622	0.03730525589770559	0.02345556821287079
0.03716631727786205	-0.03519435264667448	-0.02357448607633755	-0.00414767854247766
0.05213195313913522	-0.03848584699710677	-0.1038274281829947	-0.06576735798691223
0.03578959349054286	-0.06798942785444159	-0.1493466794710731	-0.1035359565076273
0.006534543598034757	-0.05970243765979638	-0.09737805568097953	-0.08147503686410619
-0.006818726952225261	-0.03106659681158669	0.1553202566703532	-0.01605016284280679
0.01707114497721684	0.002537075857401009	0.135652643297329	0.02018821254579831
0.03226011535635137	-0.005551485057552858	-0.03885069121425769	-0.02503816661787747
0.04764251550098678	0.02268260486056616	-0.03981201037321842	0.001304911834660089
-0.01632707103017253	0.0459900811110065	0.05532985916943642	0.01621634065884064
-0.05500053379583288	0.02435283766104779	0.07803975712623912	0.1030366849709802
-0.02526807238278055	-0.05267641623458014	-0.09395120966495979	0.05520670935310351
0.01841841989696302	-0.09197995684740184	-0.005262412798626919	0.002312819431565542
-0.01128327045985044	-0.1051240346689096	0.1585779717471092	0.02709302459399214
-0.06911778951539965	-0.07047824862104565	0.1474031860703093	0.002907677565828466
-0.06889678129670494	-0.006507130958990506	-0.007094325725293987	0.03570887463560367
-0.04664695935725122	-0.01383142146075703	-0.118382016266643	0.07281119939703393
0.03603126142100585	0.05283953791618591	-0.07386217384342376	0.1019163830830155
-0.01081112183999377	0.09111694925599484	-0.05150483364020651	0.06968607702047636
-0.1019119085306997	0.08676029936794753	-0.05487927508669829	-0.04364961631735718
-0.1216000185890548	0.0806747775554275	-0.0932041208065791	0.02224181003128494
-0.06085468575194281	0.04526447761245422	-0.08349039756841739	0.03870646532729868
0.1089194489084374	0.002948188384773902	-0.03919943723884819	-0.04402175893159795
0.2015151053492305	-0.007143339233811125	-0.02457075995171377	-0.09917647401969934
0.0803683914300915	0.02917032397738547	0.02998535656384462	-0.2159841172748953
0.02907870747817764	0.05670121556831043	-0.06422550017559119	-0.2258090656167034
0.04405262684596125	0.07550074455735009	-0.1509289615875861	-0.08501462210306145
0.03847598557766641	0.06249344604565064	0.1712124315311712	-0.005452621028872937
0.00868212636982096	0.03603545667556197	0.05986010522030312	-0.0334477832103191
-0.03161369695322901	-0.01236940795652311	-0.165636724198098	-0.07102592182207221
-0.06641879120516105	-0.1027859100200325	-0.1418896963504117	-0.02602917683002021
-0.07239579772201538	-0.1326467834250358	-0.1183700710044416	0.08071390299115409
-0.06438961098991589	-0.0676492992361067	0.1728555606740174	0.154698081637431
-0.0558719146736175	-0.05023090573694397	0.2197791138685764	0.1355892777334405
-0.03093632491785037	-0.0366078375953941	0.06763509833288983	-0.03855922527814173
-0.0319778607996845	-0.04175082929393063	0.0223284878869983	-0.02403369245547871
-0.02644891539953488	-0.06374186294253699	-0.04627514786823614	-0.242315560800189
-0.03356951297510189	-0.05507942606768856	-0.08476973766808257	-0.1843896160256043
0.0247090580536412	0.01693410504126585	-0.07817172501738225	-0.0923575474299215
0.0245842768846164	0.05771540062753861	-0.1248307976410137	-0.06285766312954137
-0.0280814601761864	0.03926881373286833	-0.02510290337745608	-0.01499085850268196
0.0003341048754412043	0.004545176843289043	0.1246270383369972	0.06423230445205139
0.02173017513896452	-0.003987477737362707	0.002056503309791281	0.08524295098643414
0.01291480262908244	-0.006221875408524678	-0.09480145466645082	0.04787860749302115
0.01881707964276561	0.01840738656491158	-0.1101975791225459	0.01123513896151734
0.01942721603041476	0.02030495624580785	-0.08303183896704619	-0.01143633012838826
0.0006737739305846986	0.03835726458726196	0.145590077739955	0.02014573167845804
-0.05420877170229067	-0.0382332597536761	0.2067619022251122	0.06239177563637506
-0.07466061870168343	-0.09708953965398005	0.343085246868335	0.130402687365144
-0.03725747943468409	-0.1421969904964508	0.1386731317421541	0.1312684844483701
-0.04194526538291326	-0.02508455038119079	-0.04601397953428742	0.02493995889551351
0.01105610853454514	0.06803097644014336	-0.008947167202694346	-0.0830265145675748
0.009210729833855217	0.1300024826163572	0.03810353635189546	-0.06819333301841402
-0.01504700407276877	0.1719063527417817	0.02658414192903057	0.07143121476185815
0.01383907218497718	0.1895685847942488	-0.05451482319705399	0.06330730334601596
0.07980445230310609	0.1897643238152837	-0.1024954634148567	-0.002920798685349208
0.0896863088871185	0.1453974305226028	0.0008697308879630237	0.0761810453326334
0.1114382314153027	0.1144769018378166	0.05052622660024426	0.06814445484854989
0.08433384364479889	0.0725919020265432	0.02147917336554734	-0.04429724696957214
0.01341706513152632	0.02667410360826566	0.005111661915596287	0.01406732150952014
-0.02744889525790964	0.00535385596627325	0.00972381262162699	-0.003258594038087552
-0.1108334093494004	0.0007677214181714156	-0.06957670987635872	-0.005544816438483658
-0.07082540442978849	-0.02513291416678197	-0.1294400215730899	-0.08845313249649601
-0.03407521055293661	-0.03149669137977572	-0.1987445704286779	-0.2018636340705191
0.03592807738832261	-0.07665213750167031	-0.3139190546980761	-0.1344157033049401
0.05399876040341073	-0.07494123745848305	-0.01363288692755703	0.04329921773395461
0.0376831477967827	-0.1241217035887356	0.08697387055465298	0.08136211266892587
0.002393316080616951	-0.1041947500553781	0.1532855850635617	-0.01557240567285027
-0.02047314660970006	-0.09869012205928702	0.08668128189172786	-0.05213065130293284
-0.0113133801042859	-0.1163536073284046	0.05372063766956946	0.01158708792791715
-0.06000611181441225	-0.07385371716892622	0.09984518196897138	0.2766453711860004
-0.134088631521744	-0.04088504390737958	0.03548402664525953	0.1831214518273686
-0.09303864987486708	-0.008373594415111768	0.003148484785004034	0.05822630529752541
0.05894975414145274	-0.02317297839539765	0.1005287261288976	-0.05762673190954724
0.1268907560737358	-0.02928653202360281	0.1258243563898075	-0.08776284387672884
0.1037114198209963	-0.03537227785771294	0.03620345562375934	-0.05364732145367803
0.0364003149824211	-0.07530478829382169	-0.03899472862579575	0.01188774850282377
0.03653361388330975	-0.04334682429788537	-0.06284041280456894	-0.05787993162645223
0.02387497392920353	-0.01673418693074881	-0.07282154325021682	-0.06797956965325493
-0.03927890871125542	-0.004828833735290851	-0.08650213570838884	-0.01149558738042878
0.02675475906479118	0.1013272036933248	-0.09446204753268329	-0.01376691066012204
0.1351385045608656	0.06941616632481024	-0.1232500785157854	-0.02585278373979402
0.06160104489430686	0.02178194150873399	-0.1321742557776908	0.04565320155568303
-0.008629632164301428	-0.002528483127093514	-0.05926410533682741	0.05492125120785388
-0.02368667751059397	-0.01878332293329256	0.02772997978597838	0.0283751719003551
-0.0211468202740444	0.0002843055262807112	0.07431582129690779	-0.03378009952276292
0.001405878449299316	0.01035195512897917	0.04617920325432164	0.04068708444798777
0.004110694337864157	0.002349658859787771	-0.0335981242637026	0.171627157070678
-0.02633369506751976	-0.01136667415779165	-0.1245244448036104	0.2306022760261941
-0.02703430055464105	0.01010688250126317	-0.1263694635822819	0.07151402633995196
-0.06059800277093116	-0.0009789690639639868	-0.0783878081939804	-0.2488269679691942
-0.1027873063381255	-0.01346031486486433	0.03089583951784175	-0.3064650387962867
-0.07245376451397204	-0.01752480891256886	0.199715818778503	-0.1388677303547572
-0.1050110444714976	-0.02353528567033324	0.1914804574179838	0.002701653915432459
-0.1191135885409717	-0.02755277547633387	0.04795322644593439	0.07184166503819615
-0.09046816141430708	0.0105665182334791	0.05528581734253842	0.02760912855419572
0.02254586131916056	0.04874220845751767	0.05008089688832412	-0.05300485706582419
0.1221587683587586	-0.03097964342729849	0.1122642538838051	-0.1130403317849673
0.1284334064894281	-0.04176407901789373	0.05993693113011851	-0.066727133897764
0.05785298877462867	-0.0497151987374098	0.04286582985625169	0.1347739700617916
0.0008373298759499909	-0.01603767484592898	0.03480717405881024	0.2064194247525768
-0.05750283520284333	-0.02717896058708868	-0.002613721845819187	0.163819139609334
-0.02499010188546299	-0.06190195651104295	-0.005604367219008727	-0.04214173217786097
0.01870949658178671	-0.103059380259198	-0.09573836100166128	-0.1369946726329561
-0.01896346171748096	-0.04736876638525712	-0.02005669109828482	-0.1077301896139417
0.005532295225974333	0.02648371214925709	-0.1438558045218155	-0.0845534929330385
0.05139503595354429	-0.003630984172939276	-0.3313737647523948	-0.09817144075800842
0.1133406646856823	0.01451921088103187	-0.01899877309993959	-0.0142408245402638
0.07980794286685951	0.06893878767949105	0.07267478223460037	-0.01417120033013543
0.0009628728105329282	0.1652788238169311	0.08991434872704192	0.02727303631786754
-0.06608526934934947	0.1824833933424026	0.1044675945120293	0.05762004783621363
-0.05451197773009353	0.12233938779839	-0.01924996025615111	0.03353433530248275
-0.008294578751747642	0.06974497329496958	0.009532259591828853	0.02520810807294358
0.02452867695564096	0.09560888489091053	0.09693051061161748	-0.001731551257368479
0.06749445541529854	0.08508689461243876	0.2253198306696325	0.03316983157466807
0.00470161190187402	0.02748608186778388	-0.007134641968982043	0.10357616519506
-0.04302164261184953	-0.00413836443012441	-0.08143413883414945	0.1668563985158736
-0.07417379896673953	-0.02317261912188232	-0.04999908323983746	0.2124009331217248
-0.06698463076179696	-0.03535853777727949	-0.06437649205709095	0.1533985791323374
-0.0435432757856684	-0.03556751141253018	0.05773626861596991	0.0131233190236663
-0.02247839220975766	-0.0892793870882136	0.03246559425657896	0.02878503573724134
-0.01220229725747895	-0.1542054588534539	0.05620528844190294	-0.06111135716166947
-0.01760573792170975	-0.1255173891725966	0.1615385202103871	-0.1192966803585553
-0.005686550814670773	-0.04922094131408485	0.02129787925805932	-0.1304330135132453
0.05395734889751376	0.0004969707789168349	-0.05642632904165347	-0.08667232335961481
0.1705744960332647	0.0300618861119251	-0.05650017590189258	-0.06726113733192837
0.1020899627029448	0.0408017840269391	-0.0927453224090882	-0.03332046789208905
0.04356510354500251	0.07913162588981824	-0.0824038733153948	0.008581967636145525
0.003347340454134057	0.05471512609286277	-0.04337312941202502	-0.02106543560720371
-0.06579768653398034	0.01791054263307575	0.01848087530730752	-0.02170489355195836
-0.09662072922678819	0.01375246120493949	0.02004429178752618	-0.02862106166257151
0.005749605419715959	0.08904478707753581	-0.09850880775662038	0.02827926850619679
0.09817120419667406	0.08694522462124543	0.01920780331894758	0.02601022229666176
0.04013594669942415	0.05917485391827727	-0.007860819402424845	-0.08643906478132134
0.01495843424241676	0.04770468683646251	0.01636052914731083	-0.08817476429116387
-0.04620798724445976	0.02221383848625689	-0.03839038208716791	0.1184905764617632
-0.04938418734842217	0.008339738051520388	-0.04032666856943471	0.01315623813495845
-0.05654395587453608	0.01667855369664745	-0.01567361509312207	-0.01288057439913307
-0.0768752498688425	0.003309037308305399	-0.0165751686211439	0.01025610656038241
-0.02850473450499798	0.0045689954663052	-0.05218680820158862	0.01578870006930257
-0.06357280713215574	-0.009555564019110011	-0.159985240109264	0.001717969588849379
0.05330950947589323	-0.01738620550754627	-0.140409498977809	-0.05176911589131653
0.150780337850722	-0.01811016742886341	0.003150537940692818	-0.07114051451935792
0.05027897492937218	-0.04297571620680737	-0.08854234505327765	0.0321250661393347
-0.06491507240023522	-0.09392631712710971	0.1550161368464935	0.08266478521590966
0.03763656504508761	-0.06392509847959818	0.2848941276567787	0.07430850584093868
0.1018905126596943	-0.08258951230962026	0.0349575731214528	-0.0003910356310178682
0.08055665316370045	-0.1322774005171288	-0.007897821773214226	0.09338162766010813
-0.0205184817570359	-0.2261134728568823	0.1347540813500817	0.161352547028006
-0.137440619666727	-0.2366115642112308	0.1419437055692698	0.0862007785223381
-0.141099561058559	-0.09761684443782223	0.2040630622160841	-0.188090194363056
-0.04055683109771521	0.01156789235878959	0.05834714780041632	-0.2091727268419389
0.1362520889884865	0.1192897213704204	-0.03291082474403467	-0.05782138141359463
0.08867518615948738	0.1103275512091175	-0.07705702899334295	-0.08352299172412431
-0.05430983610724483	0.08307592096823153	-0.08181662214506505	-0.06557281776288255
-0.1177762342974744	0.1115862682550606	-0.1839366136896439	-0.02035999900639323
-0.1157054363880853	0.1354601745081746	-0.1729579643581941	0.00349227978329908
0.07106733478413399	0.1754671267567619	-0.05532893376256331	0.02253904401139543
0.2395283412539791	0.08875882343345362	0.06727377716441388	0.0478926782351615
0.125667288149351	0.04304770196673088	0.05480313699018862	0.04227331972286009
-0.0300071615359197	-0.01011356455213505	0.06854397599257489	0.1024585523424339
-0.03633695750569736	-0.0618889224169025	0.2723727601356076	0.09452835661166105
-0.01215613595723544	-0.05814706157822989	0.1426670090604678	0.07628117240770393
-0.04772936062845352	-0.05618012801351466	0.0577145205880438	-0.01506250997315754
-0.05101470779732377	-0.03874201985014068	-0.0450037636599047	-0.1264908943762533
-0.05410631450166549	-0.06795085434837699	-0.1343464357521964	-0.09128948185524505
-0.009851548023540175	-0.1155879306130923	-0.1589645079013108	0.02852553174486697
-0.02357565781214239	-0.1513838080812112	-0.1298252874376732	0.0810597334803697
-0.01236997642170616	-0.0885824224732281	-0.05938583835057425	0.1764171024986495
-0.02859084326988169	-0.06402107292871542	-0.001875617523890699	0.1379125726772242
-0.06653699253228482	-0.01484412207821943	0.03899321222892219	-0.05083686383620836
-0.1285812115130192	0.1069435829929589	-0.0228102494864146	-0.2186377587595533
-0.07647561483899498	0.1367334573590172	-0.02826179737043676	-0.2186805114810372
0.003954859672538263	0.1840866189216487	0.08168644386644344	-0.05870476802270026
-0.03751003467294797	0.1894496539974236	0.06902155824582167	-0.1064792108189416
-0.05773397786021247	0.09680297201624533	0.03452390093448532	-0.1061082819259049
0.02118585333499418	0.07702214617557719	-0.06945787340804226	-0.03622935171926842
0.05443012166693451	0.03306248826466487	-0.1042605186598435	0.03168512616223471
0.01241961277695048	-0.08481117490626816	-0.1348632814991529	0.008501746614788155
-0.04383426183260294	-0.104316160843144	-0.1235761740505401	0.01618185099652433
-0.053798206348325	-0.1072502197222195	0.04698090341766914	0.09663037385236871
-0.08679011591931658	-0.1025041363674111	0.08523855710938184	0.1189220158644302
0.0890223502167011	-0.04091741866992719	0.06043906472014218	0.0668133463946968
0.2185851502659084	0.02419851720553721	0.02960861062182833	0.05938274888982713
0.08440481575316289	-0.004023980986009424	0.01334495844951483	0.03403958567072385
0.01966430102148654	-0.00295943971410425	-0.06238800689774753	0.01253661412527533
0.05074456067455693	0.03916029758511137	-0.0642263060534364	-0.0684010968766163
0.03805972213161093	-0.06015963763242248	-0.07076434418759001	-0.08285120190617638
0.04318138561146768	-0.0707543331428649	-0.09677078802822049	-0.04262101582863159
0.0524706048583415	-0.02218079927116257	-0.06911511684760295	0.02575000820963622
0.09118723547815429	0.04007244322306093	-0.02568007232442165	0.05738356788738896
0.06163201921551101	0.08859615221888653	0.103004320847144	0.004272630370537747
0.03211585627510211	0.07914082653936107	0.001327183454736699	-0.04575823742155086
0.02910777094442546	0.06666808562320668	0.01999676826149756	0.003265113685869601
-0.04191582567287505	0.05307907769197232	0.05950798363453568	0.09107695993290309
-0.0778652623001458	0.05544425866527856	0.003088962494127516	0.0525358483635177
-0.1516662745066971	0.06093332896084454	-0.05453895505206044	0.006740759957392348
-0.158252641678108	-0.04790263975095482	-0.07104101222906044	-0.02144560067588388
0.01568420664884165	0.144238683424562	0.07082191564700431	0.01822699599513149
-0.006402921799240234	0.05106135111526791	0.1587575096842643	0.01614012721252088
-0.02467069538621582	0.0008332283026822613	0.05091775062685192	0.06030173841643262
-0.05010993187799037	-0.06637773763639433	-0.03407976691837455	0.01055008948960444
0.00269264334440739	-0.09879556514481262	-0.1344441555864506	-0.1397014276327481
0.03871763558425197	-0.07329813633484851	-0.09995032623580036	-0.1343282680502151
0.009465291730588084	-0.1029992628919777	-0.01184933198593999	-0.006369781012628979
0.03093436447100495	-0.1009342973250606	0.01799013316835147	0.06094356755503471
0.03007817988916393	-0.09993374557113757	0.0455042560560043	0.1692277197659041
0.004241855979227738	-0.1021037732636958	0.04058113214007267	0.1920863951417021
-0.009255569251797432	-0.08098069520429886	-0.1822127830812023	0.09878461305083194
0.004890457833161757	-0.03833564037230581	-0.06552233024230131	-0.0722925053739155
-0.02774782260172727	0.002677811226425924	0.1883526673378488	-0.1108416261151876
-0.06492570621696872	0.03798814443019845	0.1670665411223066	-0.07869482727761545
-0.08345546044245518	0.02973388304398256	0.3271243779808011	0.003169058855217302
-0.01502115071178773	0.05487385398960454	0.2215450970166735	0.03469332000768674
0.02210195910441903	0.06019693752533853	0.1851665917672894	0.0421804609665499
0.05983680258405309	0.02168318134359261	0.07861595504954014	0.002481053075349244
0.05625483103572836	-0.04310911089724982	-0.0007406549713283516	-0.03608132143415865
0.04655096973849134	-0.07393425066758791	-0.04054800455145489	-0.03933251253404692
0.008423839848142994	-0.03243380447508962	-0.02501741298770532	-0.125745158706506
0.005689847639479764	-0.001594572011489249	-0.04512128514946029	-0.1257009031729411
-0.01242410981770528	0.002807269252700314	-0.1283750847330017	-0.03954749434865002
0.04264986829001463	0.01141232272364129	-0.1110113702462916	0.09865838683624557
0.05589091755157952	0.0591520161766349	-0.05484775594284278	0.1482350829758374
-0.002900445607734639	0.1024408455725362	0.05706643418129082	0.1649217350304147
-0.05354222759689882	0.0841629205522347	0.05683767421492562	0.07627282450498156
-0.004254139672200911	0.1097385537807191	-0.007919605376315697	-0.1199946065249415
-0.02834679559305563	0.08234909023660564	-0.06207333376900113	-0.1814362253131744
-0.1276788013689185	0.07363577106567736	-0.134968059576884	-0.1803200426377034
-0.09583300379180791	0.04396796699324986	-0.1909736334826987	-0.0489198312884573
0.2341229298593908	0.0168969012749861	-0.1492970580907586	-0.02621803321294599
0.1999269889164028	-0.004185432477973805	0.002898515346570575	0.0309330816924824
0.0398219986221066	-0.002902130522993672	-0.09634327539017615	0.1381496618149274
0.003048176285822427	-0.03298035288913175	-0.08764415450091674	0.1943968224243146
-0.01464201381919823	-0.02599777778309154	0.09031087443433251	0.07028287433705147
-0.06957844160991636	-0.03680478605178348	0.338041150330594	0.004690417029855331
-0.09047457606783103	-0.1299896075010276	0.08180167276233054	-0.02877024568182788
-0.04293544434683343	-0.1249131129406974	-0.05505994928232633	-0.09797915280472873
0.07660254143729237	-0.0373882525225055	0.1202485789910037	-0.04352953901775267
0.06622930912809735	0.003069107254116146	0.02620669561764834	0.07895267629711482
0.02479886206093752	0.03465602365052504	-0.003951677815309878	0.02969126090560096
0.03649253613556959	0.03603778361074983	0.05643168996969294	-0.09376679405880847
-0.2650309749089994	0.01481039662256793	-0.05418605559719426	-0.1258062063580552
0.130294777288097	-0.08792702793806263	-0.0603299267972086	-0.04823212943528386
0.2030902475333435	-0.06108765776108924	-0.04872776697385454	0.09483948749121546
0.05479641983816291	-0.02092754032522549	0.04130879545297597	0.05121622551103169
-0.01187517064365545	0.03998740217995136	0.08670607069458328	-0.0224744102808787
-0.01953233039474035	0.04785196677789228	-0.02314313414448806	-0.08010676910877609
-0.009771486881779874	0.01922861409212197	0.02916342488574427	-0.07399777234626785
-0.04038750221335701	-0.0704176325523936	-0.02232967913899519	0.07751942334650958
-0.03946942850472208	-0.07390293908659366	-0.06253270762621889	0.09530768054563493
-0.03062737113715396	-0.0479846201422475	-0.1846958390268233	-0.03342409539146044
-0.01569324428973811	0.01055137444339237	-0.1665447908481927	-0.1504919350800306
-0.03116915755848828	0.074885598794641	-0.1140372192278047	-0.1160059917600683
-0.06908691271215789	0.1217552623795896	0.05110519404358133	0.09585064029292119
-0.08282992118352837	0.163330655806684	0.04131824918089837	0.06229436220248885
-0.01107544995036472	0.1971932250743077	0.02682095133534307	0.03270169984500743
0.02129239529008941	0.1527715933285905	0.001757618091471533	0.01723732119421936
0.02633227492111113	0.08444574152415528	-0.09448330365246477	-0.07572322985996707
0.05597220025027701	0.00249035663112292	-0.0294871874075559	0.09343681884700941
-0.006923580400857918	-0.06716899163156104	0.1308596619884525	0.0716013990688943
-0.0271044761468246	-0.1072202728509245	0.04338832926573852	0.03758682915323534
-0.04256973699112773	-0.09684692365940493	0.1003030995648917	0.05665789453687721
-0.05717657667939133	-0.09995568565662342	0.1067537385199572	0.09314772734178992
-0.02134049157393957	-0.08979443616486872	0.01445391005251591	0.08709170244103187
-0.01748566043997479	-0.06661829552365321	0.04523672513003842	0.1312277850318615
-0.04421292623014182	-0.03185851303143004	-0.01677490312089136	0.04950587558385415
-0.0686851992547666	-0.01635980473120752	-0.1376777190107636	-0.1056463278243414
-0.01234149640233345	0.0006697922750171576	-0.1767073496637925	-0.3104881788335517
-0.0209227691106348	0.01718417771705048	-0.1847808694981406	-0.2072744394681367
-0.05300692291255876	0.03476752033363719	-0.2009318107206594	-0.04292316627143889
-0.02653744449809143	0.03411297796206777	-0.1649150986171859	-0.07726914466084694
0.05810758968947378	0.03585449479790014	0.2200747198060546	-0.05913624913603154
0.006565889846159198	0.009442086208937061	0.3806255225798653	0.1059940781307936
-0.03577518432810149	-0.03482912065104522	0.1101183357089388	0.1705089663763917
-0.09819207443187332	-0.1127145064489326	-0.05390509286432235	0.09775083442928852
-0.06578070101207321	-0.1033596435648774	-0.03024508815210627	0.061887231972779
-0.04563118972510966	-0.0856114141283691	-0.04714046475894286	0.002374541905501471
0.05916076425302131	-0.03236770889325553	-0.1151024674864764	-0.0968442592270571
0.1917492305397121	0.003360454550658759	-0.07169452714486121	-0.07071775395158261
0.04489231368795647	-0.03494142866881224	0.00842028820093451	0.01643599372035746
-0.0580992338183251	0.01926819162407619	0.1500573504807226	0.03787591249840669
0.002333045263529109	0.1233028016831503	0.2244447153377414	0.03490434440727622
0.06773980668953901	0.1846714288334806	0.04653024850234053	0.009083492591905341
0.06826838983583833	0.164103146182476	0.0541517965399529	-0.01863587834075883
0.05755563389661344	0.1131167971939736	-0.02340674430700827	-0.01844598220722068
0.1171851763953513	0.03771907755666439	-0.1226628505561981	0.02263035131556037
-0.02262606970125212	-0.1932627572319428	-0.06765336920768195	0.03435610539334769
-0.02537262165274101	-0.1601304451817692	0.0003818128029707975	0.0791313887452339
-0.01351322908620921	-0.1067970960875182	0.08701135698650529	0.1051375487916451
0.05616772589741374	-0.04299854185057948	0.09179671479211338	0.1059524547754446
0.05657347501576917	-0.03739280380014685	0.03493421111355782	0.0684372114117108
0.0139497420944465	0.04839670480259343	-0.04361661043742662	0.02410241876188897
-0.0402383430285654	0.06236778208304802	-0.05847953955871733	-0.06725155257229803
-0.03351590606353447	0.05917584278792493	-0.004085011263330631	-0.06437348822110482
-0.02996919338792333	0.05022177325620724	-0.003148152729992599	-0.02115124484663776
0.05659366733214709	0.03991405551786486	-0.05563816757544736	0.004781816978030149
0.08733024117781779	0.04158850101301556	0.03501171863481857	0.02528215058442368
0.04124950300616989	-0.005137688992079672	0.05865612474467514	-0.05589077573781683
0.03067701522486535	-0.02302472767033628	-0.007339987305900681	-0.1838993728213909
0.007121716327257397	-0.04029729843366323	-0.049477015102906	-0.1873846469739039
-0.01298567982006816	-0.0443697820581155	-0.03925128371711643	-0.0717738531370983
-0.05911880450593047	-0.04497435799494658	0.0009835612366165818	0.02862915373399895
-0.03669379234279528	-0.03179439027926067	0.007958431201269853	0.08736776216285977
-0.1261936662428371	-0.01741601659286366	-0.04215482272078102	0.02658541165389386
-0.1228661856790761	0.001802306143271565	-0.0750764702285325	-0.04989057184440988
0.1184157123013956	-0.009177068277050067	-0.08830131122394462	0.02306959972136232
0.172348012668397	0.02052128558444524	-0.08027326453772055	0.01893582758324322
0.03274556530807331	-0.03627503182340409	-0.003609454571003018	0.0750009801431654
0.05380979929375691	-0.05800471541240283	0.05115356253260682	0.06413302170196464
0.1086496151459603	-0.02484418825213061	0.01904024642565026	0.002570775720440557
0.1206966479578142	-0.0126264205023131	-0.009909003374860387	-0.1464160325411442
0.06452605159638487	0.03118377570673529	0.005410306007632976	-0.1707801434796757
-0.01937467201938116	0.0408296911082455	-0.08034166807573728	-0.1151561706040314
-0.07305191145841315	0.01216604242090355	0.0734919082081856	-0.02837488951970337
-0.06901160348046848	0.03681726067424277	0.2640234058101881	0.07112109065945713
-0.09994526949796627	0.07862245325961191	0.1417623015640761	0.09841215654766575
0.01879858043928156	0.1246007417823032	0.04166165428868712	0.04494607194727214
0.05795091382726095	0.08327287678109745	-0.01487179505610205	-0.009344623132561139
-0.02011320567522698	0.01448717418708114	-0.02666544858858715	-0.04444101715645001
-0.1045694473855655	-0.03972745399154811	0.002385635370147208	-0.02488082050300345
-0.1637832703853772	-0.1237711520217867	0.004827464695384274	-0.01027810283055002
-0.1464747318963691	-0.1334868562865474	0.1054641352321539	0.07726817463123628
-0.1194249904365103	-0.08844762928153904	0.03331404423864654	0.1038498745926436
-0.02319248490374716	-0.07082715927006268	0.0182955256237523	0.05348885230153517
0.0528241107980404	-0.04006678002692848	0.01843604553398073	0.01913345065059069
0.125882831458404	0.002438742365850799	-0.003709806824163138	0.01129965691191049
0.02883925113306634	0.05888042284816738	-0.0312549016480755	-0.06576852371146139
-0.03511693207779425	0.07220142663191349	-0.02868373903740609	-0.05266682324980873
-0.005527955046399959	0.1261404102999472	0.04204612462344586	0.01045463310930041
0.01310819102958498	0.1079799082557558	-0.0007206215972700503	0.05336687409599911
0.009681596980279785	0.01921072243441307	0.03246943001441362	0.08154137521873386
-0.0005029207050203472	-0.002467005941764501	-0.06936036797382285	0.06103254884765059
-0.003984874385374095	-0.04046211114948924	-0.08611659717553269	-0.03327492203281393
-0.02598723293944583	-0.02107900735628249	-0.05580182480070424	0.01589227776268253
-0.03861743051528272	0.04425554555478139	-0.07434818104482162	0.07475894761411739
-0.05037766112337007	0.1410489658224037	-0.08652447922380581	0.1020348525105204
-0.03585424692915442	0.1531407557191999	0.0285711617613303	0.09447550318184463
-0.06678343570367695	0.03682387284041482	0.0115820970125431	0.02986895830078279
