-0.01734741446562485	-0.1274881036712115	0.002548846011137205	0.02092063592077665
-0.0008717761522450253	-0.08318957507669208	-0.004739105954019631	0.01162646747711771
0.01626921061382568	-0.007675108253900173	-0.01613898901922684	0.008868373375087148
0.007828031924313564	0.04591845510140299	-0.01350115093544431	0.03604460039258285
0.007787846002195345	0.04719467510460546	-0.01866628050528888	0.05117375259522119
0.00567361979204002	-0.01711583557015661	-0.01381781800547636	0.02782403191218117
0.006423514991111544	-0.0123299318569308	0.001690509562322081	-0.002008888344924487
0.01019116688233575	0.004503751238120557	0.01529834602122624	-0.002468737556318666
0.01066714694721245	-0.0468343044164484	-0.00346071970723854	0.06564379365248768
0.01152938241130184	-0.05599738920468881	-0.005900749216108672	0.05826009810189928
0.03082802598766685	0.02257165082606482	-0.01422620175722541	0.1151474011214511
0.02510041524308703	0.0880243736822577	-0.03894450343205995	0.110387844964817
-0.01511554319832854	0.001360114165846509	-0.02744971417099441	0.1037902430426397
-0.01656751020583766	-0.079571430810843	-0.01955008331918472	0.05736885285709829
0.0004543835144640473	-0.03382654886859048	0.01279716181603718	-0.05518345896857954
0.006521059052403826	0.002109973502172922	0.03793522066669715	-0.1329294005725148
-0.007905416138618615	0.005351394476915663	0.01524069909328157	-0.1036555196557374
-0.007506067640874749	0.02084364827035434	0.01143338760420077	-0.09952319026532296
0.004608501607608573	0.02150032674003055	0.018770460647527	-0.07278446219684247
0.01272912044400903	0.02863737546955409	0.01965265651851714	-0.05530486114188002
0.009726289812322361	0.02102204604076902	0.004337721771359711	-0.07018631921542529
0.008029451535063584	-0.0002071767940010244	0.0002301482169132049	-0.03658300359487366
0.01100622836413603	-0.01083529280377564	0.004766312429632933	0.05051723761531387
0.006383294753440283	-0.02124028100301851	-0.0002005124939809003	0.01892807011233881
0.001602592993355104	-0.05460645101398307	-0.02281697992915069	-0.01941180310275728
0.004130000977269818	-0.05524079776850217	-0.03531026405631198	0.0009426506368438618
0.007880309592561453	-0.01505517994200755	-0.02466588826205203	0.01373968400152286
-0.00519676448844426	-0.03405012055335854	-0.03178883389350887	0.02699234047776278
-0.008575054658821229	-0.01205719307854661	0.003474886748643404	0.0494609418567888
0.002140581074237536	0.03644851402516872	0.04653537055826193	0.09302991432822033
0.00525005660835851	0.08376439018718079	0.03492954546606774	0.07073353096772317
0.01451879546992309	0.08518355324107479	0.005314098071465291	0.04490182707666057
0.02798584342672519	0.1220344860801461	-0.0122878838882916	0.03169951908768668
0.02777298279480847	0.1182224069003735	-0.01153564413869559	0.02675223168978214
0.008701181064626846	0.07887653938890825	-0.0106504096361613	0.01823017780681559
-0.01456049294774732	-0.06125034634346313	-0.0207446475341085	-0.01302748145555858
-0.0384589446958739	-0.1510046434072214	-0.04780933846151984	-0.04113120462766495
-0.04548652944253985	-0.1346860510328306	-0.03320690007729504	-0.07648066900306506
-0.02482637344583076	-0.1106661507347567	-0.01040428140804863	-0.09333057126943783
-0.01390655599471748	-0.1091139977636913	-0.007600710282646758	-0.06775883675638764
-0.02108306665050943	-0.04620812556718363	-0.005615106039583781	0.003922994755292078
-0.01566193855572504	0.02626279941775118	0.01497554762758399	0.0234445292908447
-0.01229283361661482	0.07624523381403586	0.03880995413530985	0.04942318371714662
0.002154347221766667	0.1200806135795819	0.03221299705923394	0.05389875447660717
0.02568268678153707	0.1159622560030314	0.01435747976690915	0.02566083079409648
0.04757277933288212	0.1880068670739248	0.01433415779239227	0.008270934650537933
0.04322943786888605	0.1315250263966889	0.02306226874807406	-0.0524028052462933
0.01164527528987792	0.06408450352202121	0.01634996683273418	-0.07030591644175528
-0.004215335348615149	0.03241031112198924	0.0183698992488026	-0.08367359627044835
0.001023957031014754	0.004255357463482427	0.02139938388143326	-0.0544142213541604
-0.000532050536707738	-0.0224975613841587	0.01554639703230721	-0.0401914446215073
-0.02685101940019332	-0.08469082435202821	-0.009941788748029836	-0.02018197769874497
-0.05577888224700479	-0.06530532175842189	-0.02393762372596363	-0.003865709607678713
-0.02984247009332189	-0.02930953024549063	-0.03040505410213219	-0.001750589676011792
-0.005798581019715736	-0.02131792899851833	-0.02734255131762217	-0.02367429675814891
-0.0003185753256013671	-0.04228745900462673	-0.02995339385795534	0.0005590093960088998
0.003849655951807094	-0.04582206309207974	-0.001126287900725392	0.03090051043199451
0.007080005312174966	-0.1189500431050275	0.02093052387984735	0.04324771486979791
0.0147159136699239	-0.1260323307620861	0.02489959404436302	0.03202586547782407
0.02532314838404613	-0.0835429326876069	0.02252098124425582	0.00968859412775524
0.02652305362988857	-0.07396624632486554	0.02160329620543542	-0.01296785858340934
0.001474391910922346	-0.03538810718845731	0.02324796451994419	-0.03646972478725902
-0.02449843003519083	-0.01050149358593974	0.004408822402258671	-0.01414022507363326
-0.008948554312701891	0.06033751874447772	-0.01234389139315742	0.00830727536162628
-0.01899606938770158	0.1109241391189771	-0.003242889568416716	0.0170162248105856
-0.02864085447201516	0.06122049399443948	0.01296423953969399	-0.001320200319091841
-0.02633367274533589	0.07022879039559395	0.005497835039980492	0.0002137322538221346
-0.01769954498897384	0.06896256962940502	-0.002483975352612536	0.007994249952092082
-0.005284329404610305	0.06129982137070548	-0.001744984726549336	0.01332151679217921
0.001656775471418491	0.1054327504533053	-0.003127574503231272	0.02084785722513604
0.008226338968728365	0.1062074154620996	-0.0187222632016585	0.01072984008258119
0.009476912839816307	0.02815779770015552	-0.04099242315154922	-0.004713036532608963
0.01742059349052048	-0.00780672419559495	-0.05300825156659699	-0.01471333726620253
0.01102170345985765	-0.0148730721147093	-0.04429673735752741	-0.01995014361819186
-0.001413076828653196	-0.05875079318692648	-0.016811749551025	-0.0003196829704379111
-0.002379374282750055	-0.02817100246388387	0.01086654727613802	0.06704654884889052
0.002767096701617453	-0.003296415022034556	0.004648507163878713	0.1265197112300068
0.0201635607196247	-0.003523668306128013	-0.009708012305891207	0.1850781434945101
0.03719619328758345	-0.01894217962197494	0.01134313475984631	0.1434593138088932
0.03795723537034739	-0.04511589295286998	0.01979742136569758	0.001818881965801694
0.04453875510753473	-0.03981575875437647	0.03494788393757689	-0.1084124817448904
0.03540843498084346	-0.0391076264403019	0.05116281296437018	-0.1083645140073354
0.02213146409178779	-0.04513330928578746	0.03394047594652362	-0.07628036823807742
0.004012213154687915	-0.02767090498336068	-0.004105352182884537	-0.05089834984139683
0.01043594092324291	0.00369379600570955	-0.002194055267130821	-0.01274756832340729
0.03001095887111251	0.01675028317937319	0.01043831578148218	0.004116366310142612
0.02950052426298077	-0.03244452554796488	0.005583091793625584	-0.04380549140925244
-0.03395938757014742	-0.04738046342675642	0.01373916371793734	-0.09690306888713486
-0.03612143592845001	-0.02212706215688233	0.004228202057921021	-0.09273661490469529
-0.0156017097107104	-0.009060050198295219	-0.007230790517450937	-0.05151692508937702
-0.02151507511808168	-0.02684918994096395	-0.02249934138500486	-0.02690952180666491
-0.01600893040607279	-0.01933220207091659	-0.01779340139176481	-0.02149073726297721
-0.05661178286711323	0.0285195389244614	-0.001990461062923802	-0.004888759715558804
-0.09043462862908831	0.009703314430703535	-0.01273889854390292	0.004198495525579637
-0.03992281086535156	-0.005107478500514941	-0.04400806634826711	0.007485714554337487
-0.003532906359638628	0.02369964003779213	-0.02009567891629862	0.01457419054307432
-0.002064181766202695	0.0441911327355247	-0.008557046815707217	0.02540836504506342
-0.007608607250744592	0.06564042050837882	0.01388739139471633	0.02071293391021281
-0.01132493182783765	0.0624567472744479	0.03050029421940737	0.02023534648588312
-0.01720097247815377	0.03659825542144576	0.04204913711823497	0.04547462796279848
-0.004000605357623659	0.01457240519078149	0.01706998315099666	0.06648220511179234
0.00227203290450643	-0.03252864250040423	-0.01201636426805099	0.099026592094413
0.00260593853003072	-0.06001213754689457	-0.01774705672440022	0.1280814835263386
0.01546857520623932	-0.06886159718581704	-0.0127596517648517	0.09267072173070276
0.01128064306182228	-0.08024975317392385	-0.005157564636067421	0.01438762866903467
0.01582354197670026	-0.04235503898934419	-0.01131512743212617	-0.0316097240117689
0.01933136971242048	-0.05639498205436028	-0.02104643132931519	-0.04452235506085441
0.01836949569809299	-0.03366750808393654	-0.01635722531444152	-0.05422455923633321
0.02335529805346315	-0.02182592825755255	-0.01235813250559013	-0.05538393983391961
0.02720191719223644	-0.0012560288384615	-0.01406243601721997	-0.04618065613711051
0.0230764858395232	0.03387325294650772	-0.02247042380124169	-0.03547930548850867
0.02416401324389424	0.04156543061719768	-0.01796171694509971	-0.02638447769415444
0.01849224837497476	0.1117683201884151	0.003648011133394929	0.004267016076535544
-0.005725206002239257	0.07570550048953875	0.03363478951628275	0.02631520352199813
-0.02418471460481782	0.01051589669978259	0.04462701075048659	0.02554372428186365
-0.01450186255593795	-0.01426928463628212	-0.008787465404908166	-0.001045477342183203
-0.01103122362181485	-0.02932353273433374	-0.007753557284930498	-0.0152327723770209
-0.02281746796404987	-0.08118879066285477	-0.006121793356806145	-0.0001667941850893937
-0.0231632400781697	-0.061088915966341	0.005338606794858084	0.009539808167215974
0.0105310145153216	0.002460889523602849	0.01666351233771643	0.002652307464201172
0.0338876499682219	0.09185092885286268	0.01947970384791821	0.001770636245029511
0.04575459364593372	0.0984381097438206	0.02376519400192901	0.004715544025096006
0.03783274082487482	0.03476783043769188	-0.01263092732178166	0.004880292488731832
0.03032349628994052	0.009778492718908353	-0.02951357689545145	-0.0009019022651233167
0.02672565476081446	0.004159605929805521	-0.02576332625060076	-0.006527011461646161
0.01014536943100896	0.05446431916165079	-0.01106016049717217	-0.001933647443377737
-0.02806088713086555	0.06778588080111234	-0.01230581189738132	0.01674306158805576
-0.04540668213768898	0.04154188445903097	-0.005117122975247902	4.142083935587215e-05
-0.02768967074319693	0.05379289367656178	0.01805580242495157	-0.003700639126994274
-0.04172985799320793	0.06679882194975723	0.03621456625919482	-0.0001437059112112854
-0.02342010435409493	0.02806019445913807	0.02903241868442477	-0.009057615373463786
-0.006309690073317071	-0.004056296457953704	0.02439701442359788	0.003477780239508976
-0.009036096649684508	-0.01565969577106559	0.04423971236192394	0.009513225735453669
-0.01482260885534484	-0.03249379347717061	0.03247211046629014	-0.002513328853813279
-0.01213166660740816	-0.04945713540290957	0.04045109015902194	-0.007056744351859144
-0.01464415026726103	-0.07343992092904442	0.0297238904829654	-0.005242032187828597
-0.01268976444344192	-0.09221310847787148	0.01296746623414989	-0.00386842343098453
0.003330539334614573	-0.06930487718011394	0.01185191843444563	0.008229132458858266
0.001529665044912617	-0.0580608169521837	-0.001847730623012312	0.03057137743483101
-0.001125644920653192	-0.06947512191455193	-0.03582150399766377	0.02029187796898056
0.001818198390012117	-0.06197141277684341	-0.04955971497624403	0.03601167926244776
-0.002528687692668879	-0.04313973711700344	-0.05043727093455353	0.002983039254062961
0.00403714911871062	0.0207583246291454	-0.04057473842080912	0.009054460568594661
0.004412822796020363	0.008397932352021175	-0.02743010963236601	0.06435105645648401
0.002888070545773133	-0.0422652043947122	-0.0151923306046441	0.007050841141811071
0.004971417703310673	-0.03983925277818899	-0.01274540394822663	-0.0265443395925634
0.01235050629777995	-0.01138118484964879	-0.0296489177314748	-0.06185044877434873
0.02047134108436109	0.002967645131452258	-0.011298143749816	-0.07363413054263165
0.004038756529779295	-0.018869796280579	-0.01051916343528396	-0.05682810549406865
-0.01177748973568175	-0.02061645545368394	0.009985811553457329	-0.03988812716237095
-0.0003208513183856215	-0.03021285765793304	0.01819867097540997	-0.02520150682345235
0.004788737392805015	-0.03307302515757448	-0.002094821390679275	-0.01427835714904073
0.0117264300717471	-0.008242949534706353	0.01193733298550932	-0.0103500678767003
0.0124677840600056	0.0001263060637250209	0.02094189384314956	0.008652570119992037
0.01220558332469131	-0.01809555045785132	0.00752066062410854	0.01010394118359747
0.02877431428545084	0.001923991942113363	-0.0009099553625982049	0.004531517510746277
0.02630515652052377	0.03658023429323896	-0.01118971434523064	-0.02297699698265405
0.01537202121135535	0.06240291313954103	-0.007548917540896604	-0.0380467458541799
-0.006093617308354715	0.036589022651874	-0.0003910582868304593	-0.05473693278988261
0.002135629163311707	0.03985206438851246	0.004033729886287066	-0.03245051386215322
-0.004400357300634769	0.001587825625998453	-0.0128252415353364	0.02799489374480228
-0.02210653826998724	-0.01423562719528735	0.002314498907235541	0.03544977234703011
-0.007339599570889113	0.04659020031174729	0.004478829704143124	0.03152224094114702
-0.009487513063043251	0.02980463111374268	-0.001278820310750353	-0.002567544046805204
0.001639878195486441	0.004988340342179356	0.02644139129167333	0.009916070407130724
0.001066908246912668	0.0205589255498769	0.03631163797617644	0.01532803342759334
-0.01178715245535202	0.06472607983778526	0.03233863793379087	0.01767459044525801
-0.005657243048894999	0.120007535652551	0.003951508291807295	0.02741005575045492
0.0003410173704052155	0.1296942498660935	-0.02154864452120164	0.03843224195905628
-0.006536245044211656	0.1275305300402754	-0.02456066216902912	0.01253496658293057
0.00634029782043603	0.04519084403794204	-0.02554811461283139	0.009262388404577666
0.004045227903622556	-0.009383964243615676	-0.006200211521023426	0.01310794975528105
0.006829792484157984	0.01683639638546565	0.01354546854376861	-0.01643684492566948
0.01406319338016662	0.03658043006967183	0.04825972768972349	0.004044693244783206
0.007856820007282854	0.03134316859399455	0.04367614267252207	-0.0001850759332727122
0.01422876332905054	0.03945281673964318	0.007390460971374254	-0.04674806722591925
0.01792152556598124	0.04203322643590091	-0.01325529081974706	-0.01123092223916027
0.01180871698935141	0.03101510475598728	-0.005417025079149347	0.01912594244443125
0.01233058056956242	0.03454794223588051	0.01848171904810761	0.03570185347068423
0.0153417656862711	-0.01903382524212806	0.0229565918698145	-0.006709701454671133
0.02115924707455177	-0.05166406784307699	0.01753267507894062	-0.03558369198405811
0.01844602826930421	-0.06321160348502736	-0.002632276213210258	-0.01637622817909004
-0.01131012636219914	-0.09572258285033457	0.000562707231348381	0.01541741499599998
-0.02957924109890286	-0.09507935746872509	-0.007709492896293746	0.04602991192414328
-0.03932914861299811	-0.05649958692293915	-0.01672971954288681	0.02962150748786186
-0.03051744690291851	-0.03654569666679618	-0.01049492814777308	0.008018639518468
-0.003658139843090292	-0.020488413202304	-0.01403045820334881	0.000575080546707284
0.01516052271934807	-0.01392842512994344	-0.02323476814693992	-0.01601955598771321
-0.003647114297620152	-0.01608058738455588	-0.04595597329087716	-0.03686020047745667
-0.003071711090056478	-0.01113553837796705	-0.05003125571080563	-0.02889657895587256
-0.00808109513766994	-0.0261154819275936	-0.02641173092519409	0.001076702562736991
-0.01033822193212439	-0.0470518746324914	-0.008104494756696771	-0.008701916496800223
-0.003087564227824731	-0.04373800321288408	-0.006727017528057547	-0.03390402355082398
-0.06484214136113332	-0.0565516303410705	0.008724227297637454	-0.02354692138841521
-0.09782213367447504	-0.03778482299652154	0.00982532128691075	0.004775546795978421
-0.03451302104872109	-0.02605525804685694	0.007008249619648364	0.01765801061837069
-0.007559012766248403	-0.01113215651168668	0.001938986740510895	0.03633288893733957
0.01612861118990927	-0.008187264888332765	0.008134328488139136	0.02937545236282301
0.01788662394434682	-0.01369859529096567	0.003197351875782039	0.013347215306492
0.01672348253440166	-0.05282873671780585	-0.002224788146022844	0.003878402101493919
0.01626907680069006	-0.10988754977585	-0.001735001336429428	0.01462934121416072
0.01188673888227058	-0.1017632915964984	-0.01965308300238473	0.02324599269960045
0.001218852430980942	-0.1094509440459084	-0.02276447889456652	0.03893548680960338
-0.004256108359089145	-0.112262634573007	-0.0127636942480068	-0.04402074630977756
-0.006786931045458922	-0.09807998916695429	-0.00489573878460236	-0.06724955789996911
0.009438054333713718	-0.06226964891024107	0.01390702719191842	-0.01905360521156825
0.01916657208158011	0.02552693130912775	0.03376750682869531	0.03280251558270144
0.01542093704374217	0.06895719824762378	0.0434359864703515	0.04041764969374811
-0.009738437286614212	0.1428904660249037	0.05041499753305372	0.04724884091048029
-0.004418218263336804	0.162292840027914	0.03526593695075349	0.02977659708908297
0.0114290715229215	0.1997859446829174	0.01413225576567662	0.01205940004762262
0.02176925717522331	0.2313407589727374	-0.008668321419843007	0.05069136827854594
0.0182094574795961	0.2256782866859219	-0.01262819396648702	0.05710816634950281
0.01025983547544375	0.0804593105414674	-0.01421636149424361	0.04239699021805812
0.01971457996960429	0.01203745143038043	-0.03129562266725729	0.01713912263467807
0.01705681169647919	-0.009031192119855253	-0.022510411123353	-0.05827030873699236
-0.002523445259389964	-0.01128744593106817	-0.01220265280671603	-0.06410560389189156
-0.006307392813629684	0.02294891043334527	-0.02710489621110359	-0.05862198153112318
-0.002610321613506466	0.0357183687991119	-0.0267199176291723	-0.01675672990680854
0.002801778303550567	-0.005278021688723398	-0.02767342667102785	-0.01065934247698485
0.009868452843438579	-0.03847392245083396	-0.003738293422078815	-0.002500537010755475
-0.001513522085105669	-0.06528807853365572	0.00719831076620861	-0.001318487009748866
-0.007873359623342197	-0.08986906025367351	0.01697721814589971	0.003395327855648951
-0.01343567028272079	-0.1026562874459556	0.03838234692708834	0.01029391351904078
-0.009761907258666531	-0.09672078033261004	0.03180011760811842	0.0108480808381973
0.002921873415642018	-0.03728040645785187	0.053191333149147	0.02273454118092165
0.005655010150648625	0.02379568368444667	0.01826297757686324	0.02838633884396768
0.0137118509970369	0.05212188284818803	0.02001246373998848	0.03297591970904976
0.01039417938127163	0.04773253263468334	0.01974990977546935	0.04228686819935207
0.01799727766196422	0.0350051655777003	0.01364514509764307	0.03715302905291473
0.03225893079172718	0.001591801355952971	0.01021995949705343	-0.01779488811392411
0.01860649904172109	-0.01482534464053385	-0.01290796011709275	-0.01925855474032979
0.008288206028798144	-0.03496916166163822	-0.03815476695470525	-0.01002932294753442
-0.03189397211919844	-0.08380974517860308	-0.03597569648428323	-0.006913651416442554
-0.01888065314376215	-0.05147091362374218	-0.0388020198110446	-0.02947856966167721
-0.01892142579143092	-0.05888957260920925	-0.03882789017101213	-0.06987965718672307
-0.01611557005998349	-0.06462230734543666	-0.01317431994006823	-0.08844523943523715
-0.02337354174972911	-0.06684507033205064	-0.003295692280123642	-0.08902258619737093
-0.009518261345733487	-0.04494028167575535	0.01262429208294493	-0.02848553456834875
0.01001113903060342	0.009832802454191148	0.03694767897610159	-0.01126102264513726
0.002205871182549369	0.05156126737414042	0.04425784906189641	-0.001590115464720362
0.00157750570845789	0.08049971490021005	0.03872953612465867	-0.00482868793866921
0.008835757791156262	0.128612977059569	0.01604860151242643	-0.03056943715864947
0.004822383832804782	0.1044767858004138	-0.01498075803286984	-0.02413483123513138
0.008116026192298309	0.02123792793535624	-0.01830181545140587	0.02312864632200796
0.009363410247671743	0.006611358652350844	-0.02529192245589661	-0.006737519746891783
0.0163901729715256	0.005331784079753206	-0.02348930193019223	-0.01299289620322218
0.008772974582739509	-0.02625108298766241	-0.02851513488100269	-0.00515819531094688
-0.0117937762432459	-0.08773424989632561	-0.009312623402515097	0.02102629403344264
-0.01538504797894848	-0.08904554094278337	0.004784147590051047	0.01993180616846559
-0.01419234354781287	-0.06814432724244346	0.01433125889117472	0.02840241859881754
-0.01604134604619171	-0.05208234090326357	0.014533664502347	0.02869527320950948
-0.01283399162035332	-0.05240080193887306	-0.0243707749614283	0.01264059121772368
-0.007086973531508171	-0.007351012825549176	-0.02480380218490075	0.009210474128236779
-0.007916454984635956	0.06566121209250303	-0.01398240729764255	0.00802531839881236
-0.000962334976655817	0.1211907207182746	-0.003545568266827721	0.01972853604307365
0.01102289312990909	0.02497403302603046	0.007648963476214032	0.05259728433534676
-0.003965398466829027	0.01031847133037704	-0.002733030877906867	0.07292782351250719
-0.004519739832923962	0.01855607326886709	-0.01671951278582496	0.06425534332913202
0.006850215641213306	0.04927665407945408	-0.009428966189499923	0.008932146085344369
0.03566729793811829	0.0752021763403932	0.006857820698510667	-0.02369451780015334
0.04040020007890827	0.05267596692344833	0.01224187071010301	-0.07881385786807033
0.0416166937252599	0.06945756745053153	0.01879758530593339	-0.07905424901551959
0.02823646696699229	0.05656361296911764	0.01938257751968149	-0.05227362065022217
0.02356971593146515	0.03472391550219415	-0.0009501086361522742	-0.05013907937359407
0.02483675073497297	0.02553200587337626	-0.02341775187611413	-0.02451346495193554
0.0105851236973665	-0.01183760846483674	-0.0272166791648487	0.01162279705827897
-0.07061244857097453	-0.03797955575195637	-0.002655287312218869	0.07898254360468468
-0.09551355041320857	-0.03532555730856889	0.02128904033031115	0.07151135178376
-0.05720702731317298	-0.02654789740162204	0.02265626182600824	0.03330089544863527
-0.03227702306936969	-0.003744560245869573	0.001736714947067829	-0.07265218811920528
-0.02106766563545831	-0.009475450560048108	-0.004486774785615476	-0.06647032540144661
-0.009662327161050324	-0.01401674649189192	0.008049249737913988	-0.01156102248794601
0.003692374221015348	-0.02349621936336969	0.0359772331296313	0.02521619808995003
0.02436913447141354	-0.02102589489135199	0.04041912011301325	0.02822950841879522
0.03094463587064095	-0.02826722232440629	0.03564047585869255	0.01125169197334921
0.03890698324264452	-0.04562686169946689	0.02718848404248192	0.002726027566254834
0.02637998131833599	-0.04162586474219802	0.01081959478507901	-0.0003887311925147603
0.02471106344536705	-0.03256971681274866	-0.02303830682906624	-0.0353466572581629
0.04601933817588984	0.003917514374021359	-0.04467858050895289	-0.06481583806684194
0.01748129276208845	0.009738577090025605	-0.01959060178444591	-0.04422968373483506
-0.02693624014413164	-0.004144403051700907	-0.01489322802495543	-0.0222876997562808
-0.02757106846111695	-0.02460606221615158	-0.009076836475941786	-0.001552539783964721
-0.01925023215955899	-0.06554965211517227	-0.01434717566891323	0.008382636627423213
-0.02423803723497833	-0.0691332955496682	0.01378679386167631	0.003604578662044256
-0.01357335839519352	-0.04536219424895194	0.03300821486268574	-0.004204268049711782
-0.031367581833561	0.0002021646472830617	0.01708804439286226	0.006336743228382979
-0.01105281283775657	0.06393915352086781	0.003568827721756914	0.01673315258598302
-0.003384652845230183	0.1441093633977275	-0.008326882355109932	0.02333298946506799
-0.04113965349644141	0.1347654942354626	-0.008781709074802399	0.03396818569005414
-0.02663377513880318	0.03795418033787783	-0.006851828432828289	0.03249378386241409
-0.002621131704408224	-0.04776220755811181	-0.007359082066856383	0.02835856857781245
0.003948044781040346	-0.05144098609001035	-0.01010414621083139	0.01596702357033516
0.005780198113085768	-0.04500101570335059	-0.006764471367993736	0.02693096068481042
0.00655842393670035	-0.06186098721681815	0.01370410654625177	0.02208432479604255
0.01003124223653106	-0.04748858799130418	0.01851928148048754	0.04713823947821719
0.01474377025804819	0.002546524758600277	0.01678006817384047	0.0470414628517071
0.01987387662284462	0.07426566724089331	0.01023530318408482	0.03349059643091702
0.01475042096747574	0.06646762541476198	0.007850758115319989	0.01890319127563271
0.006483673139852118	-0.02935399506179495	-0.01740630276097858	-0.01718455086421389
0.001289306767070198	-0.0367740124603719	-0.00595405845837797	-0.02870854955143364
0.001360729099431957	-0.03102892094318557	-0.009634708289135022	-0.03327722551086389
-0.007457797610382073	-0.06652936700897323	-0.02255031161712486	-0.03153009214294942
8.978178495710007e-05	-0.05590416297931134	-0.04148532490798376	0.003225284334714135
0.005661221386378635	-0.05428911569913423	-0.03425669798851289	0.01828321529559061
0.01086107162256334	-0.03067907532556935	-0.0167343639813165	0.0347279336285473
0.002201048070906488	0.06501406034464889	0.007369214841145585	0.05136287758435047
0.01211357544308264	0.07920539010385463	0.01211609722367014	0.008139113008572302
0.004602243551133817	0.01098409849628303	0.00789234998339192	-0.03587673760347985
0.007680973105037666	-0.0472969481249252	0.009332861962307414	-0.03262298029498985
0.006374303219785164	-0.06826396714837921	0.009792015860235093	-0.002363490850946591
0.01133625191612112	-0.05107979410282339	-0.001980641590562313	-0.005096972294471406
0.01365628242211965	-0.04528850394607059	0.001110933422832999	-0.005121594371920307
0.01410155119781895	0.01219028131198086	0.02718648651886195	0.005905134554995358
0.003318059853383305	0.07266922245880189	0.02570522332820182	0.01242061729871059
0.008035698483419252	0.1375171147861411	0.02952378627394973	0.005898816918851522
-0.001063905502295789	0.1125981423045632	0.01041326896595128	-0.00727610991668088
-0.008202332840298164	0.1213621846118837	-0.01420004917302459	-0.01340192124479853
-0.007456981386538586	0.06107856797059129	-0.02405432793294168	-0.009006906052212747
-0.006694712640299237	0.001967562651082968	-0.02580031883398894	-0.01214949298797911
-0.003183054983521116	-0.02238876927620719	-0.02849112373878703	-0.002777274911270605
0.006639404347544025	-0.07270222028063529	-0.03703123945617592	0.009761584791283093
0.006264709598517378	-0.08139677763271427	-0.02206995308959094	0.01299315937246934
0.01317894185769608	-0.04285765671527413	-0.0113749361227455	0.02837653524185117
0.01043233209561139	0.0002102663780101119	0.01551753773880247	0.08777309319426475
0.01750442536647697	0.03932412518223322	0.02488041037843542	0.005925089267726048
0.01784696379040613	0.04301529518387408	0.00652798539835752	-0.08209543480490736
-0.01059211079517484	0.0002967003562664462	-0.000584545070320627	-0.08955678717540021
-0.0178259710323273	-0.01650992483634739	-0.005482168612538823	-0.01575618806400993
-0.002249719071206614	-0.04869412642527553	-0.01545068244805464	0.02359479902596293
0.004303201400976331	-0.06677025986754692	-0.008246603811552258	0.03045421237389591
0.02131513680430824	-0.04072111103379111	0.005085806648116159	0.009699487381484566
0.006916940950391841	-0.05821010530294012	0.01912209903046762	-0.001830425340739169
-0.001993395706416586	-0.03778173052428684	0.02134049426085468	0.004908848598448388
-0.004365703497081787	-0.0169336149664703	0.0203682424243081	-0.007795666393618107
-0.02547756748518714	-0.03230517314115563	0.01469451766403085	-0.01552125734671594
-0.03570409235265523	-0.01845152791809311	0.0103113955053497	-0.008592310211768719
-0.04477682485237709	-0.01498411989588549	0.001798796807042325	0.007060089036267319
-0.01489209696191071	0.01744632370976133	0.003287339922008032	0.01679171717447844
0.001366423021824993	0.0925046795200368	-0.0004050083779587508	0.01216562741672705
0.01227601601954928	0.08550545786551733	-0.007854273941784702	0.005437085497728067
0.01194511086278594	0.06583719577552213	0.004263497088176911	-0.05715400757825569
0.01783769565359917	0.06379644508821919	0.002838170814127225	-0.06455520173804888
0.0133863078731006	0.08657918258916958	-0.01151404185395445	-0.05157229313839611
-0.01292074421091587	0.06716096216841751	-0.02549504897370669	-0.04704580068896307
-0.0003899953905950971	0.03340676070822785	-0.01832856479986034	-0.004429447050188021
-0.002244024646839823	0.02399025123024314	-0.01077749911380495	0.004078688430767956
-0.03201397015136632	-0.002033190287899007	-0.02444321471072888	0.004357027569996352
-0.01379730172264615	-0.03565712835487	-0.01518667264743748	-0.008912441329223517
-0.007894566242232769	-0.05879616850208201	0.01032065721874535	0.003757387615182746
-0.009275801307974464	-0.08131375160575056	0.04009935371336051	0.01403542854419801
-0.001874765113306997	-0.04640932838342986	0.04419002397020819	0.02308380150424529
-0.008474307593454578	-0.02798794062846276	0.04158173705050906	0.01380818281267509
-0.01135698466370142	-0.05255542087827564	0.02522182055882073	0.01153189660440492
-0.004893381066479026	-0.07744201204521885	0.01995624362934234	0.008800470623856324
-0.002655851355389686	-0.07882151730129279	0.006433531156079178	0.03939047267098639
-0.007391316027193395	-0.01336271292082647	0.01074839429921197	0.04881978418453372
-0.0005766043641816145	0.06422268347291497	0.004837717702522743	0.07563012910439061
0.008921666254995901	0.08180911617884598	-0.02688694598388615	0.03921819114953033
-0.008553353319329028	0.1036743472648776	-0.01798047823678089	0.00316538910790771
0.004304084898816133	0.1183000443098374	0.008115825105312812	-0.03478331865161911
0.02910927055617824	0.07458799434892369	0.002488185197574688	-0.07348862813133199
0.03029771333569725	0.06229765225711093	-0.02740767000732767	-0.05174824397531251
0.02420214027479522	-0.02030377222855576	-0.02673941804562029	0.01070831075606174
0.002960071712460072	-0.09422542211860828	-0.01681249799805262	0.01501922227079701
0.003288440142181203	-0.1044198357578401	-0.001660004381797759	0.003941519886985753
-0.01930785861205408	-0.09913018335129999	-0.0005174700924658364	-0.04007834777827659
-0.00688456407871674	-0.03953256049806701	-0.000333371884332612	-0.07303742081302975
0.005722275386073551	0.01951078150196402	0.01470136972937565	-0.06772925887263981
-0.009299948471086797	0.01161054114140886	0.001834163168645604	-0.0127365974844558
-0.01114593245980084	0.01675691770320861	-0.0053840265557727	0.008998815334391459
-0.008050360220463626	0.01047437994925817	-0.01521406076274353	0.01239062063331089
0.0006736024599919494	0.05336782166814712	-0.005521974470002925	-0.002613857513381579
0.00799782375428686	0.07660554498032758	0.00237331686418514	0.003342417688940547
-0.01428571452939996	0.0439816979655875	-0.009342039280076509	-6.469582586200577e-05
-0.04230708114264289	0.03407092206446291	-0.01270436040309384	-0.020385792219514
-0.01971384550432385	-0.02350915960147285	-0.01390605567574766	-0.006378978815941199
0.0007943608571101404	-0.03172517011728878	0.001568725566199895	0.01142461401092753
0.02050740338932617	0.003996738627138383	-0.005085610716882862	0.02759307718612568
0.02006456176730145	-0.02830922687068808	-0.01549301164795012	0.0217135455765609
0.01256393041862083	-0.1087080241410489	-0.03869421543173798	-0.01289631422459146
0.01535819521768597	-0.1416314532903271	-0.01996872900794964	0.01352000298128224
0.03071008234864097	-0.0471799086610659	0.01151161370093096	0.02524482178245419
0.02875434296064941	0.01663208183029651	0.03028489522069532	0.009174849602787563
0.01924119350708188	0.03440791636369841	0.04134545701429147	0.01191606957576091
0.008316333818102163	0.04628961567131968	0.03968387231942056	0.0146790445751072
-0.004534075163560487	-0.004855957038873029	0.03378265348849471	0.01586423261477409
-0.003527957979017327	0.00285280112880557	0.0135490376800695	0.02695487611938192
-0.01184958799123095	0.03949484166336674	0.008057643970593182	0.04071090264324696
-0.01089574190593724	-0.00920078724031795	-0.00630369866264976	0.04549845628541764
-0.008823534971078986	0.01151542667366698	-0.01200587928202725	0.02302455050344354
-0.005205332359430674	0.009059403208274175	-0.01852605687508507	-0.01411919763536454
0.008608554115137322	0.0269210560154251	-0.008058890685601117	-0.03723794454322373
0.01160091897665543	0.03574596792254707	-0.01884169914090447	-0.02699482496311496
0.004674488909933242	-0.009890334873015588	-0.01823674311693695	-0.008186935613798952
0.009210888181104066	-0.04134437131194443	-0.009523590446971968	-0.006841873354807237
0.006880478947399018	-0.05310624148291934	-0.00815760839543005	0.01171867022120104
0.008281693516327647	-0.03327128670500398	-0.02245921763055233	0.05749196356361921
0.01601873360756981	-0.01569269542219136	-0.02899491801698751	0.0617326503800729
0.005809966396651754	0.01808573235158428	-0.03433121205155025	0.03784878785881247
0.004747777301366211	0.05232001482586374	-0.001920269266317038	-0.02542259979741569
0.01380300855372415	0.07076593821299494	0.01386971391864778	-0.03328524574979386
0.0009689383074685895	0.03167155093096718	0.02104567809292088	-0.04895852509951017
-0.01533523654766041	-0.03524710663786111	0.0365571682453972	-0.03065715530417774
-0.01937817243262608	-0.051211742906121	0.02516107373452524	-0.009026646167190936
-0.01957329334784275	-0.03455554831035584	0.01916145989975201	0.009935842399899582
-0.004630400717428841	-0.01260329325875429	0.0156122864453636	0.0101928176509724
-0.002006232409719938	-0.0141673785337742	0.01901737521170242	0.02703044316765815
0.002277994567640864	0.0284727491126183	0.008751883146075588	0.02711804136698303
-0.004536748487135453	0.0250339757237814	-0.02057866463974995	-0.003646212454679199
-0.01411408995026936	-0.008756585087726136	-0.02523488667594671	0.006239259102679236
-0.005883244046931928	-0.06838677755352368	-0.0240728067966298	0.02466622651410831
0.009903951751838792	-0.05214191641912753	-0.01316277927927791	0.02042776588322579
0.01076557119828214	-0.05263092961952442	0.0006770143992530529	0.002203098737361464
0.01995749464260937	-0.009710331720114585	-0.0144713139086374	-0.03161854946604466
0.01791861581679516	0.0727366940136184	-0.007419581286762824	-0.04576883577243136
0.003839885688289539	0.09596253473260417	0.0178686503658586	-0.04086345431390236
0.001274663228092101	0.1183046241453807	0.03584284078772546	-0.02600646276896157
-0.002409406000154495	0.07788248125496089	0.0266692934594369	-0.01657876911736872
-0.02261579951806026	0.02365081376684595	0.007170112399924203	0.001043760583983367
-0.02823391089389138	-0.007814257859695481	0.003837405376873775	0.01165758628468736
-0.02809677640141153	-0.05670791795701916	0.009306178175852964	0.02762714933948725
-0.01934427855661719	-0.06042245910123834	0.01425233902819824	0.05832722115351281
-0.004364583887338858	-0.01032287544057351	0.003615218271804806	0.06839160276553849
0.0004114359278613139	0.01886278564346871	-0.0001408073615019781	0.05139438694999154
0.008376890589521964	-0.007005534560205169	-0.006332454860872053	-0.02247670441728076
0.005758210638961318	-0.05242843448553296	0.003811714142203825	-0.08660085061377833
0.01377594936605799	-0.06847982757863445	0.008690702975793685	-0.08120463209133365
0.03114541126770467	-0.03042910667904972	0.004698537217365262	-0.04966772647179634
0.03349079051867904	-0.01178145793605204	-0.01393433932090828	0.0008993258625525336
0.01834619508428622	-0.01500313014462036	-0.01423659382308779	0.007349660903335388
-0.007166811766487234	0.008872375723127792	-0.003180319825546136	-0.008752989672224883
-0.001070421639958996	0.02856256340451709	0.003512800584024982	-0.02525763822487045
0.008530787397050956	0.05132857000138393	-0.004527707741528604	-0.03272804559276637
-0.02367517318554278	0.057836647663762	0.002075402219903577	-0.005383147871931657
-0.09650076296890964	0.008122915642640496	0.01010406971787178	0.01844679316341536
-0.05800899210471712	-0.01033359400994388	0.003944273132779779	0.02783679435820106
-0.02538036061608129	-0.01824895605210707	-0.003071411791297112	-0.009923994939828285
-0.007718922654964456	0.0004800313518846233	0.003336705001540101	-0.01562427211367362
-0.00638758978422518	0.001878341368065962	0.008789547997109487	-0.009076707873646565
0.005523435933416694	0.01883238134065303	0.00477592228874957	-0.01218943225714426
0.0207646007490337	0.04291588076560266	0.009465039395906935	0.0007134505448069464
0.02706101266193893	0.05350061962294442	0.007296129735350109	0.002342243714075404
0.03080841232778505	0.01597144364131631	0.006216334910892561	0.01376238271989971
0.03125149998195913	0.0161613133116643	-0.001453651882425614	0.05383574641242274
0.02275213564750823	-0.0255676810452078	-0.01785513702314799	0.0735260304266083
0.004038141427424496	-0.06626965838211271	-0.02676990124816182	0.07802749605522181
0.0009447413395245997	-0.05565247697463917	-0.05033582248576303	0.01309737168126642
-0.01213804793693996	-0.04920924126912948	-0.05241159165618521	-0.04940745765589125
-0.01966403720447929	-0.02743586718255262	-0.04603986272665986	-0.1185754062815517
-0.02690021769399799	-0.005893928019920796	-0.05338863129758671	-0.0829899445906065
-0.03126404047226729	0.03504350181124971	-0.01317160016485663	-0.01559261301547693
-0.05405712894946912	0.04993676024864938	0.003851654610000716	-0.006743467605836271
-0.03064777572540826	0.04194590536636273	0.02608354606972311	-0.001719230312700423
-0.004401608199393385	0.0334320943086119	0.02296234867554501	0.01928855124342644
-0.004452599742194053	0.01899027987681304	0.03182467926579691	0.05797953399341692
0.006928207048785115	0.01206360025276315	0.04713371959075924	0.06268487234677858
0.01399503909612575	0.01096753591472982	0.03220766047835757	0.05536623147955438
0.003959418199158135	-0.009845060275493716	0.01076917917511533	-0.000596322030709865
0.001908368739826085	-0.03729401375754268	0.004681239908934091	-0.0001451586786399493
0.00176790090315253	-0.03910917103615644	0.007996162542546223	0.02206970474853774
0.01778931540705666	0.004447477953983286	0.02588845521597665	0.02051338024850057
0.03207281913301032	0.04300863252603597	0.0337272561707544	0.01971325456893732
0.04245955623544069	0.06860915414650946	0.02043802286823326	-0.05581550361885345
0.02757577551665237	0.04016184659923536	-0.001511872869306475	-0.08238502494267791
0.03220034392087988	0.02316234852921118	-0.01132650253888163	-0.09025185623784612
0.03866595786242544	0.02372226130785198	-0.03973813913724372	-0.07073619326551513
0.03531896251522187	-0.05293465891473136	-0.02868402691773104	-0.03955380939276546
0.02879371781366253	-0.07296459951594191	-0.02371278997835514	-0.00157669482553122
0.02689194214759725	-0.05288891155408693	0.02375214478916616	0.05080590534840959
0.02599210911465353	-0.05525157318247247	0.02065379118147324	0.04428235728374907
0.02386693912592683	-0.03576765707918499	0.01910108287201626	0.03104791573533876
-0.007130933188091977	-0.03543747099181928	0.003177339438583111	0.01366909708540678
-0.0338681926429179	-0.04066939889017691	-0.01381765573902879	0.01731318151959307
-0.03976837271545114	-0.05290000749250582	-0.01669980653121293	0.01006509122501296
-0.04771931808345098	-0.05880022720524799	-0.01404864210344231	0.03130517981273761
-0.0277930368920075	0.04272631663036702	-0.006696306793579162	0.06565044136019829
-0.002504401520874964	0.05781282003148237	-0.01511283601369907	0.07484413996113481
-0.006433349437290447	-0.02871429446285615	-0.008293145776291661	0.04730251395093891
-0.008269601264342809	-0.01184380042710715	-0.03173765802874452	-0.04019362782972508
-0.006237984206331903	0.02451078307815895	-0.02904996855227771	-0.08892626681732162
0.01048545555287739	0.07574842598827189	-0.01545529558575462	-0.08938414772612914
0.0243317331499978	0.06098178581955513	0.02560928543161476	-0.02756282262326891
0.006650942977379356	-0.0006547216135361285	0.04240660079626056	0.02021010078451915
0.005058277317297537	0.01959351353778392	0.03472005480182028	0.03840409272173577
0.01539038180769681	0.04991564513023476	0.02426595340692913	0.02784612728555716
0.01728832788053679	0.02336952468001327	0.01346934080295959	0.01498594550192247
-0.00154225991379424	-0.006880770108896231	0.01263702105108192	0.01580163706660836
-0.01502658544345948	-0.02828389177270832	0.003644504863282732	0.01250871868085235
-0.01268409905984316	-0.03826856473705182	-0.004415589955285914	0.01314651393092327
-0.0120502908309593	-0.04297301803748801	-0.01157976962872978	0.00752841091760742
-0.01645894271582661	-0.05050640626533524	-0.01262057680456029	0.003311881289601025
-0.01278238440972107	-0.0118207058312064	-0.01872493231482048	-0.001465541446453477
-0.02252681760080032	-0.02079490930781069	-0.02195516950439324	0.005387207522754737
-0.01989217487738817	-0.006123222793835928	-0.03811671303453963	-0.02092197089392037
0.001457328002495406	0.008675546378911268	-0.03333446388111439	-0.02270434370753228
0.003600887500575091	0.01403651097785634	-0.01491587337829049	-0.01731057260129547
-0.003063680235411333	-0.02006094239784665	-0.00455956597316909	-0.004275932955718905
-0.01644555278097903	-0.1071885592649558	-0.02036425965877237	-0.006776168846584179
-0.00251024719071254	-0.06548832339262874	0.0260723386195449	0.04051943941368662
0.008851674151805685	-0.03133116507868738	0.04603401126006776	0.06326955024738312
0.0159942009965619	0.01854987836036733	0.01942798470772962	0.04323958556929252
0.002919479328149949	0.0366923732929083	0.01847598122859996	0.01857145226396877
0.01666973083327013	0.1308637715647376	0.02470326494219663	-0.01663594525072017
-0.0003899244647164697	0.144028251371488	0.01357906236649986	-0.03450868682743212
-0.01928663061866625	0.09901682247492581	0.002116643968981005	-0.03531874247333353
-0.01029366392443487	0.09389143938078583	0.007593208210282933	-0.01515055572434037
-0.004753449179991691	0.07385975807779767	-0.002456855007845918	-0.006182543001107267
-0.004885887414820595	-0.06359061196777999	0.008627237582128041	-0.01013766855485539
-0.0001052480148360035	-0.1319402959339358	0.004840598681153378	-0.01045143353070068
0.009784257979102351	-0.08408192585270151	-0.004276270036304304	-0.0006038414863777505
0.003914370103076405	-0.08560261135036154	0.003047298946614757	-0.004736784248754032
0.009906653566052002	-0.05091356656530129	0.009255430844838737	0.002081542001624718
0.02911300482186514	-0.0008011974558855858	-0.02051093795791617	-0.01019662917533319
0.03936622182556341	0.0554255564621749	-0.03001950488219001	-0.03534132342182653
0.04291016800441134	0.09667916588090887	-0.01160291930025376	-0.0118215123589275
0.03032559412153124	0.07868988547546805	0.004742478739325128	-0.008668306542886301
0.004448279328498476	0.0412624863193066	0.01334530342864787	-0.007165116603284801
0.001658425276085751	0.1152525538776528	0.01945329935747479	-0.0006310603098625863
-0.001819389945868467	0.1310498185106265	0.03296703892126234	0.01317450985528927
-0.01253731394447313	0.05982835338786039	0.004987938671742877	0.01231697704653307
-0.03602581447671421	-0.02079707199609791	-0.01096200722682915	0.02317630183334174
-0.0372722644002221	-0.06054889797660268	-0.00188180480873653	0.02207694517884351
-0.02644289745240943	-0.04454628876261828	0.0108023874658382	0.008744809197069265
-0.03093987057269051	-0.0589708839457002	0.001020719917004038	-0.004682031412335523
-0.009903571245509803	-0.04412612337778438	-0.006149571388436435	0.0008786572281528801
0.005138585649155274	0.00128574733693574	-0.008055111999836034	0.01078826871279186
0.02289383969569327	0.03272372102191103	-0.007787735165274071	-0.001086426745047725
0.01640815674901798	-0.01572524400467137	-0.005014914388460878	-0.01923580929962064
0.02129081699952794	-0.02483831340614438	-0.01141897132989836	0.009907611634745411
0.01537349839788177	-0.0003158289845663108	-0.01393114593601517	0.01245837781271665
0.0166583291522891	-0.0107345226021577	-0.01861691578708467	-0.002022999787147354
0.02091035578068967	-0.001473132372516339	-0.01771084445250288	-0.01266785279708895
0.01310326802279305	-0.00579623561091166	-0.0004729059259034853	-0.05025078726195637
0.009190312910687934	-0.03027931202021571	0.006613090862282028	-0.04925034167259582
-0.001336998703730217	-0.05489443017758293	0.007550710981199625	-0.004090569307931898
-0.0214449988667828	-0.03809374838442276	-0.007137978601379229	0.0152375352123919
-0.01636375614638894	-0.03697498264264017	-0.01370601301830931	0.08136038812644728
-0.005607587668699453	-0.03419308426041273	-0.01022548430507738	0.1357746789381115
-0.04448514791836521	-0.09537288314675982	-0.01172019750458906	0.1254314466021927
-0.1040969379619676	-0.09021919432462358	-0.004903457248930818	0.06220211972656208
-0.06155036796266931	-0.05502303045983738	0.02595702507839961	-0.01452446179978702
-0.0242515923756923	-0.01352391543748072	0.0236128229328856	-0.06052189230267314
-0.007107862244718321	0.03447955827687738	0.02537598217628872	-0.113332043628149
0.001076850931441432	0.05605009841006418	0.03225617244318574	-0.1241622402060214
-0.008964424011072277	0.05421868185315195	0.01598437475152169	-0.1455467050815705
0.006319393603981273	0.01617729402262921	0.00261929343876005	-0.1143288253172621
0.02299793307540082	-0.06492378529541597	-0.02334073335949294	-0.06980935842667139
0.02679562277712494	-0.07610873800174611	-0.03511412302754317	-0.02933216920851215
0.01880018012115844	-0.0511024635936376	-0.04444239112835215	-0.01803099339798587
0.01714086108255547	-0.03480910484288725	-0.04375061319667989	-0.02216049556819498
0.01325792144654511	0.0007883020121387608	-0.03916005821485598	-0.0192858702553607
0.01453874481763472	0.08400801412919483	-0.02965344708644939	-0.0123922914312715
0.01542894915859414	0.1382105093287978	-0.007570735141335649	0.01568078053199435
0.009681382920859866	0.1257148315948653	0.01605552996723946	0.037472263131867
-0.01649434754209038	0.0408145449442397	0.02711844766283748	0.05557798622736815
-0.0309239448857054	0.04422842136838004	0.01613840025807203	0.06963703957520392
-0.01997947222102574	0.01916035382537876	0.009702428565408108	0.05489379906489216
-0.02108875433580848	-0.04330469081680645	0.02373066610841013	0.009291434762353938
-0.02748605958761831	-0.08742945651438232	0.02660069257438596	-0.01397699416831525
-0.007556722036814248	-0.09313813888766923	0.0188669350851128	-0.01831629501135228
-0.0002421053576519979	-0.1081642360351935	0.006403438313701689	-0.0152720143778727
0.025249417789897	-0.0910151249984683	-0.005198150762662735	-0.0006413027842846534
0.0374524431771551	0.009299895970842222	0.002528497537001866	0.01636293816099928
0.02824381609815266	0.02833732764972234	-0.01718751445925299	0.05623531832286208
0.0286061040491237	0.02699554181125833	-0.02020549567830001	0.05635705092026305
0.02575587175251895	0.02482784244960969	-0.01101899089651317	0.02955487861869974
0.01511533859759927	0.05177584903621631	0.01458786764980368	0.02209364008711372
0.02383516872123474	0.09312373391745277	0.02139196166534735	0.004865280327482036
0.02583164330684079	0.08564007719404042	0.01102749633766422	0.01453725684436665
0.03480934535191105	0.05047503291427478	0.01425010506582258	0.02368553943908223
0.02942312986662077	0.02517559758473027	0.01245948973004539	0.02156636016050434
0.008446683577515376	-0.01232446750611935	0.007498412860467419	0.02000129637427179
-0.01100004961557409	0.003289317231522941	0.02084831745254098	0.01989021215022924
-0.01523452641660363	0.02118979298958287	0.02279016312889473	0.01349270010038262
-0.008196872805761023	0.04138540068934914	0.01404297313494786	0.00381331025719392
-0.004631508457139143	0.06921172750316412	-0.002853644903500324	-0.006283029361474343
-0.01594389126115954	0.03803422925908598	0.01690014263851351	0.01948013342697729
-0.03979631123299959	0.001296984517932054	0.0222742707381197	0.01448597270406824
-0.03675785971601345	-0.07420655483895502	0.007463374361243205	0.009527376394097618
0.00488806197359715	-0.07586940723179418	-0.00745152532269969	0.000705221979864665
0.01496282100794131	-0.0387017782052889	-0.02284151848967046	0.01407938859475682
-0.007170876608251367	-0.01530734331649825	-0.03557914294508217	0.02174811551185085
-0.006100693564378202	-0.002229880514708466	-0.02950646435439237	0.02009656268564736
0.01552682869223026	-0.01175683732824345	-0.02242081415734737	0.001974839013695404
0.01420520169149871	-0.02836114829605063	-0.02146570563548303	-0.005599228806339468
0.02047743774341775	-0.056603965512056	-0.01425796193655912	-0.01965253688107692
0.0307855742662525	-0.04818156506333059	0.003974034123796765	-0.01413507476260943
0.01778709265461142	-0.02585638938278931	0.02495821647128926	-0.002991584964991732
-0.001533495833733402	0.009732388422375079	0.02967498440749683	-0.007181762857378814
-0.0007266166050098156	0.02198246896547094	0.01588828145463028	-0.006401885123974447
-0.006136659864690811	-0.01298691454571488	-0.01261685622769224	-0.02101288768154448
-0.0180276169573912	-0.01986170723682729	-0.004176333167347981	-0.02401005047670582
-0.005249074553045217	-0.004860780231600384	-0.00391457806815809	-0.018131298425129
-0.03006666095334451	0.01980640302199338	-0.00348048264063723	-0.00725126395092594
-0.05428529322658847	0.02228747280229395	0.005871083367523402	0.001298034380596736
-0.05194531173349116	0.02412061372917309	0.01218848811575447	0.01166422698224783
-0.002389965504169693	0.01458042005245876	0.008798660559795116	0.02005398266303254
0.01700756299328154	-0.01430120639927921	-0.00691676605572944	0.01134814930151508
0.006471467459292009	-0.06972274063536252	-0.02146276554015753	-0.003958061794913602
0.009508320478836018	-0.08767823536444602	-0.03426906330716747	-0.03215687452077007
0.01025850476885891	-0.03055003917988573	-0.02068674046678802	-0.02701801945591817
0.007278253907619633	0.07528240113522516	-0.0211356672831664	-0.03483849860733901
0.004624532528664342	0.04490544815683029	0.009784004803930699	-0.01163443083115747
0.008951600212001629	0.0400592465987281	0.02833262516827247	0.002041442495383261
0.003672193547265843	0.03176139501420043	0.02910726218981934	-0.000504085220295261
-0.00546831714965142	0.07694228268189464	0.02923851775308534	0.003727731766584644
-0.01484987972363041	0.05958910931505799	0.00474952682617823	-0.0004689474628561474
-0.005848804897307182	0.05388783479335284	-0.005726042117047219	0.0007915848332237243
-0.0137558900507649	0.05622984554711707	-0.007610071552280354	-0.007661436481923724
-0.008463028539848011	0.04799971556659631	-0.02221857645047131	-0.01035362762288685
0.00363269952682019	0.09166279122095713	-0.02986370435875441	-0.002484873232513867
0.004610012941165491	0.0451560542843324	-0.008165743555470277	0.01292953072828285
0.01055363765008016	0.004008370848823641	-0.005194217549910812	0.006409162022519857
0.03504851249417447	-0.02919222241779772	-0.006415761619678349	-0.008092985061759006
0.04813391718933888	-0.0506317142376228	-0.01111696851611001	-0.02677903586522984
0.0478652515771059	-0.06036192544021631	-0.004242503971350448	-0.0215285957238206
0.04222953283328146	-0.05408064330165643	-0.002620263355935955	-0.01346758097575976
0.03719080417208639	-0.03042177320853048	-0.003229112955967786	-0.001298338207232295
0.03756752155779039	0.001850452750205261	-0.0006690208862936232	0.023774634168577
0.01192232519697315	0.02102073966726517	0.002758485753732373	0.03502403673058454
-0.02974032699547181	0.03656304599601138	0.01344740053014624	0.01632166783252779
-0.06004257097773266	0.02941663703288361	0.02250877554303878	-0.01051105281121947
-0.09945594852541086	0.01668680874305499	0.0427613095975909	-0.02529632283742662
-0.06436590979396171	0.005857638209174251	0.02670488853057705	-0.02320573072292614
-0.03558292294211582	-0.03290663667098101	-0.01376787568173629	-0.005263423786538384
-0.02587313556973822	-0.07642471303255918	-0.03082648088590936	0.003317730482768837
-0.01455269645191923	-0.100248557257568	-0.03218784567338179	0.002850393238493057
-0.009966063207100175	-0.1254241662986704	-0.02999519698458477	-0.02243009512553498
0.007432296996112247	-0.1254753445838857	-0.008139253452863933	-0.0310371028630407
0.01391638676970993	-0.0804469386282097	0.01630400628461061	0.0284421241600022
0.0223894712262589	-0.02414576603867697	-0.001601915012873479	0.08733700021613791
-0.008718790174347525	-0.06034456146178033	-0.009504921226785906	0.08448074288282577
-0.01941192498043339	-0.1050751315797776	-0.003729997718412563	0.06270218569616245
-0.009430344557162594	-0.0507822832169303	0.02847332786261241	-0.03107099658847588
0.01542566630984766	0.0225369698201314	0.02158827923254698	-0.06270108183585166
0.01708810038613072	0.04139399889068449	0.001444946181466954	-0.1051008372904275
0.01534135216884645	0.09284950523806017	-0.004593928655921222	-0.09196457870681182
0.0196363248485576	0.1225547866468211	-0.00466605652280518	-0.05828640207131001
0.037075599423398	0.1311133850596743	-0.0005969546615325679	-0.0235638021667371
0.04356853017150462	0.0590464753062419	0.01295721689661285	0.02065014840025621
-0.00361750454957472	-0.01680019520893924	-0.002472909803720152	0.02972900478702489
-0.001823396881173696	-0.01216452380511672	0.00167797794434658	0.002171248754032304
0.01824350333567331	-0.009595577660634503	0.01548030307834592	-0.005940715093505081
0.0158016546732331	0.02310215569940736	0.0162302990188612	-0.0004597857512108959
0.009072613099298165	0.02184706229989392	0.02123500973040475	0.04928950512527025
-0.02053705606937187	0.05272593942534462	0.01065889603557303	0.06838985158731647
-0.01436486181521066	0.09706805688562299	0.01646372201179934	0.07643531085844509
-0.02075627517311892	0.08169062632443821	-0.008430846627170448	0.0188848432958026
-0.02377785961248028	0.02775063815612042	-0.02929149803621683	-0.1156222551754324
-0.01750970742669499	0.01725148245766742	-0.008790491073870001	-0.1295680371791121
-0.004405368466810613	0.02999408807021143	0.008860268481415483	-0.08622503444669193
-0.005962263271375895	0.03512453533509666	0.03268416043317322	-0.003385448112611596
-0.01298796710982583	0.01376949991469018	0.01361792643510098	-0.01906842021877779
-0.008998052264588038	-0.04999452603985498	0.006241797305337402	0.003759212586350891
0.01062250881243678	-0.04817042089594863	0.005321771426329704	0.02842291700760984
0.01400174657794194	-0.0897179898220022	0.005322785542393724	0.03143957517516573
0.01687857446675925	-0.09118327886289768	0.003735034968808692	0.03217978049626261
0.0120523651739628	-0.06214020963262293	-0.0040373712804815	0.04870344474595654
0.004346028372684879	0.02194016634882683	-0.0009714738503872766	0.0608650643383669
0.02446022134437877	0.105162641170449	-0.0001414175278242456	0.05627382443307363
0.03509198802200474	0.142698918434909	-0.01411309698517228	0.050592783253342
0.02850938602820903	0.07940201333813433	0.01002349434841403	0.06306775336374226
0.0126301689068626	0.004107417554549532	0.009741949104933072	0.04535175392423426
-0.003745216871590523	-0.05766198020656654	-0.01529778303518511	0.01480926436341613
-0.01175834003313131	-0.08003915873146307	-0.02719085124012345	-0.02162802113678845
-0.0141767089408459	-0.07732144860454823	-0.04345702262651673	-0.02147108590796257
-0.02563187690384478	-0.06855772050460278	-0.03018115299273355	-0.03354371651805691
-0.04542267204305363	-0.05361035584094577	-0.02156383095727753	-0.01806872752632059
-0.07351733986719836	-0.05460765581330922	-0.01661255426409971	-0.01370447106127622
-0.03947142129137402	-0.05601478590194714	-0.009989886287286809	0.01197606112952977
-0.01458446095414035	-0.05151798118815073	-0.0008947389029178647	0.02316902741771829
0.003780843372857929	-0.03105247222122937	0.02566136366016182	0.0495489304840085
0.01051794933050661	0.01675501313939444	0.04297850144741248	0.05646695649918345
0.01887424508033237	0.09199280179134191	0.02955498122481156	0.06586845399610157
0.03922940640910112	0.1089387527782092	0.01946737600804474	0.05331693909126012
0.02404421126527831	0.01563514181404745	0.003680058190547367	0.01365778996468612
0.02783913541476192	-0.04346801605839479	-0.008512416307527439	-0.03590915727107841
0.02832979201665777	-0.01959500344428464	-0.01231003726817426	-0.06245848085303241
0.003619337970597152	-0.05071273235527879	-0.02994123593558977	-0.07389325961167831
0.007654585960120844	-0.08300801001652382	-0.0423290045873241	-0.04487332955686323
0.007567635542587643	-0.04675728684077583	-0.02290231653494607	-0.004461006153986036
-0.02089585445077588	0.0181937557182922	0.004294633965596277	0.009147381653331187
-0.01950461724022903	0.002623461408578282	0.001233545486971401	0.01429258941380903
-0.02184220811712608	0.02637692928988458	0.00177820557109171	-0.004747101068963746
-0.03795467418039906	0.05338908206748348	0.006608282438043969	-0.03150545891613697
-0.04216371217312279	0.05302802493379597	-0.01723495016416133	-0.02692113925452309
-0.01255759848750756	-0.002086558781115056	-0.02033647161938586	-0.02422469934647782
-0.01690358718030255	-0.02972375094427657	0.006074397730276074	-0.0200607995685468
-0.02218615856713687	-0.001724668345156796	0.03417674885134066	-0.004148495117658698
0.001285681399509868	0.0550573215485513	0.01923521154402471	0.005123682223921323
0.01473313227834183	0.0627415983558556	0.02088774009290988	0.01317407368729402
0.01819193344160638	0.05194326144584741	0.02133608942724055	0.01474075916126034
0.0323666326725073	0.03370260897006762	0.01077177351341535	-0.0007168640805138397
-0.004134105725738146	-0.01343714872155058	-0.001956108409779801	-0.006905371253665515
-0.005495529272185736	-0.02903161586976901	-0.009707563442687377	-0.02160534389377311
0.006554210781136102	-0.06290250303031765	-0.007648676404048203	-0.01903302419336557
0.00718859297233587	-0.06891443603997444	0.008233985885901143	-0.00782782156266339
0.000740145058544887	-0.02669043069481648	-0.0003635095316048207	-0.01010749115513964
-0.001354597879916963	-0.03335485200359958	-0.005499279813009143	-0.01098183167791338
-0.001357331928312656	-0.06257794321575663	0.001674388148318292	-0.004633741878380547
0.005834714588842484	-0.03336058335378447	-0.02186901394377584	0.001823498993386259
0.01078540944683658	-0.05098183763547513	-0.02997442334126106	0.05749171614141024
0.01107920877138743	-0.01385058035961532	0.001783402340583064	0.06814762354570388
0.02616604424424275	0.05206187811267298	0.02026160921681502	0.05471648476944328
0.02986234593293776	0.04990373354883055	0.0186098418037961	0.01509497960479997
0.02083709362125344	0.03635320760796854	0.01203351873740614	-0.005330494710234478
0.01141470095417596	0.009281416538798265	0.00703023981861782	-0.02698687748768075
0.01104583153990769	0.0186310985387692	0.004369148911644241	-0.001038907163451281
0.01184309478467995	0.03206268318347882	-0.008493449788854959	0.006435010470076415
0.01946681055646353	0.03694826039858097	-0.01745681179262573	0.002357752074995993
0.01118876073342397	0.01477841681052087	-0.006963825485402131	-0.01817263029953171
0.007255705685711953	-0.005240816965130147	0.0002084824515780877	-0.03813905201801629
0.006540731563479953	0.0003348409109547961	-0.006834073278316279	-0.04980087728419265
0.007795464539884119	0.05410390034921628	-0.01633051643930219	-0.04309486425379866
-0.003343646892615345	0.06943479141037398	-0.02177492914415578	-0.05169203654073957
-0.002402188425714254	0.03929761305880961	-0.02779831862201981	-0.0370195495582644
0.005348159423871678	0.0007710483825600383	-0.03100107247150484	-0.01673421143314303
0.000988427593159386	-0.01749194364349551	-0.006555085024306025	0.001286933366164243
-0.006104573740409506	-0.06509619609749026	-0.003539824192776448	0.008937966432602617
-0.01580348190306075	-0.09569198021457281	-0.001181554594691269	0.003305433469560502
-0.0258205522738776	-0.04122990228551621	0.0145133076356444	0.002443303611007148
-0.01047938249588148	0.0332841786687736	0.01103039675638077	-0.02869773720140675
0.008328685329074142	0.05207909861271223	0.006380755732313019	-0.02013456911575556
0.01232770913881218	0.06636093925175104	0.01200464203570595	0.0007921150184431319
0.007251382526716896	0.05932633636923906	0.02839479582683327	0.01084528768857268
0.01390200787784543	0.01136944685589365	0.04043705976342909	0.01473849230926996
-0.001742446120961273	0.008468133349677037	0.02747600180142372	0.01281493840145099
-0.007851786784903558	0.01222077741602042	0.01667393762718036	0.01249836260343715
-0.0006759085508079468	0.01758002914079682	0.02811031623649219	0.02039714934080487
-0.003200582208962762	0.01903136639013931	0.03020786889540866	0.02019604374840279
-0.005237183874193887	0.03371197845739546	0.006236024920387427	0.0104984422804699
-0.008697048051343076	0.04488074032287234	-0.01799285550501046	-0.002941366617214977
-0.02268851657963459	-0.005517520814020105	-0.005517895224933942	0.004613115901138771
-0.01543858096329605	-0.02500858155059555	-0.003090875387293004	0.0006402189901307049
-0.008392449149829033	-0.03183419790544667	-0.01407697727714355	0.03276421812811169
-0.02174903596945972	-0.03134055605047349	-0.00873445873330031	0.09281402734805608
-0.02596715452787111	-0.05497935439813677	-0.007809877773700832	0.1057517697876006
-0.02357822385175217	-0.07081458569851209	-0.004311314580753881	0.06908213292047187
-0.01514332334032608	-0.0250808084479173	-0.01699926062344592	-0.04537989183466889
-0.004356168702995556	0.008893532816840872	-0.02229681505658031	-0.07615221781198415
0.009577952568956055	0.04002107009355386	-0.01251887498289692	-0.06546607476020123
0.00600795565746644	0.03037198583552909	0.00579357070560755	-0.05202886995249894
0.005777959538357923	0.01075057116849621	0.01246896222621512	0.02412074962516138
0.01242557813520618	0.01336657433902514	0.002786567457650097	0.06096885562735158
0.01698258913241491	0.007643209546544611	0.0036989033250237	0.04217939765607993
0.004780594925092053	-0.03689508978043223	0.0253987097469433	-0.03279278845219286
0.008641890396416083	-0.04411108043492791	0.04463085078779713	-0.05931339337252983
0.009920953410901533	-0.09028186430284861	0.05333245613179969	-0.05987442674631973
0.00134583868710761	-0.1135679741882396	0.02520215362761333	-0.02320053373972687
-0.009307159836518884	-0.0976331378476851	0.0007119783970208681	-0.0339798713740949
-0.01833524882629401	-0.03949872758687103	-0.01135857685153866	-0.04122289380470807
-0.0251614445579283	0.01622074517347489	-0.01821608192647491	-0.03609651701249265
0.005528765556480022	0.1131604345437307	-0.01581000783117957	-0.007248440124746408
-0.02145984207520944	-0.03798079761540757	-0.01832104289528983	-0.002658324891492852
-0.0102625987022729	0.02868562726814983	-0.01752283527262552	0.005195210493154333
-0.006828282129046622	0.0323209140678697	-0.01822923846557314	0.1465957075855724
-0.01320678718430033	0.02960588093240132	-0.02319468847571214	0.1008882050589042
0.004358573815677998	-0.02621867680303496	-0.004018186251401888	0.01363649470506847
0.002303723055055873	-0.07126298688943704	0.0132448029212703	-0.04355988516126054
0.009215071180380278	-0.01894589651090255	0.006745699376664761	-0.05812797210495585
0.02580173569940269	0.030600115103682	-0.007736335674689533	0.002459478807767989
0.02144610735872571	0.0929315275861769	0.001267803799077523	0.02514338338849089
0.02717803271079221	0.09065726418529764	0.005236529682295249	0.007048899648782216
0.008147258864823769	0.1071389816788404	-0.0009004680897937126	-0.01051265877191266
0.0007989462177465539	0.1209300646267291	-0.01654632902508087	-0.03405352220919198
0.01280924820270393	0.08772024189160445	-0.02077633555886201	-0.02443819795394349
-0.00310017427001278	-0.02565860051381225	-0.01643451016465439	-0.005228805814793764
-0.01578983526767175	-0.06413632931951241	-0.02451477986952701	0.01255116034309896
-0.04714741296425472	-0.0377255062261061	-0.02922584428338939	0.01821721494911716
-0.02260589617240771	0.01106454028534312	-0.0124677698163336	0.003696914056973715
-0.01265345763176766	0.03721224568013437	-0.004854314487069138	-0.01535281033391197
-0.01881414633403729	0.05263983429890772	-0.006150686523068905	-0.04790482187343108
-0.01570953883829911	0.0415486645566155	-0.006557822305199866	-0.02449058935342735
-0.01422118573121291	-0.01208432150098012	0.02615789772120099	0.0155070148740077
-0.009655582431589337	-0.1012452996243333	0.02909830624489368	0.02191381624277303
-0.002093484916705256	-0.123775344669602	0.02818914998972109	0.0181192411769244
-0.00898684455774469	-0.1120845418576469	0.005723577460023358	0.0154516275705126
0.005410084004327146	-0.06727905694737438	-0.01240029678335769	0.009929588995595933
0.01350262752054572	-0.0273348360090694	-0.03518257882335336	0.01592073751058064
0.03185610490675637	0.03408188394098255	-0.04154574238905019	0.01606722303100963
0.0330634676088212	0.02190176027646843	-0.02456269849188441	0.01458229667712873
0.0442518373997083	0.0686851663807945	-0.01113455729310458	0.01513262689681776
0.04138116609950621	0.08565530180651418	-0.004887038466093515	0.02094039460454033
0.027255777601266	-0.0002644800295340945	-0.0005642820131005262	0.03074820065293459
0.02442886935268141	-0.03369502159841584	0.02185885010298715	0.03360454424925319
0.02248125025233095	-0.02394676594508571	0.02439812083936323	0.04091239886365796
0.01215100565991313	-0.02077189571184151	0.01850579876710277	0.02982640097979495
-0.02121148257918786	-0.02452261356900599	0.0117054591320179	0.02982130154641168
-0.05409221990374641	-0.02427977977265005	0.01374524567010623	0.02871831721784232
-0.01222368151683529	0.03626485304744523	0.02305747071548285	0.01096366806469156
-0.00290453381643583	0.05883713860021065	0.01408185025094275	-0.0007166035364328464
0.002337902488467363	0.04875366249011365	0.0198219619630798	-0.05088794885114871
0.01674149442391799	0.01219953667167043	0.04228725511216234	-0.06124887040158056
0.00949275720865626	-0.01732923617403889	0.02904972596205938	-0.04408579355290064
0.01018959920635137	-0.05746216621632885	0.009749739116106217	-0.02864836253257762
-0.01449799869881009	-0.07120878991215708	-0.003220367369631135	-0.03689422247065077
-0.01706498847349305	-0.06736501403271714	-0.003451280231353397	-0.02209324638077179
-0.01582526482781803	-0.01367477816195794	-0.007121900013136138	-0.02420643160116601
-0.01896452975937073	-0.04053603838155889	-0.006530183349018581	-0.02345287376707854
-0.02577137446188648	-0.0314698544495058	-0.0113952638871545	0.0003824997044290262
-0.004663158616653627	0.0309150529935911	-0.0232265741718941	0.02657456361443283
0.003418667749418582	0.05675095700276495	-0.02843740744080403	0.04216834573134971
0.01811386557639098	0.06579735630677476	-0.01980446868667343	0.07269792431712904
0.0232335002485755	0.04952173300311714	-0.000363088946488549	0.03753560980066861
0.006942743419109285	0.00435951770329588	0.01222727514573674	-0.03281604684838232
-0.01857298554744604	-0.05215195264038681	0.01941463514789777	-0.07102658871945693
-0.01650066236227527	-0.0819168892938857	0.000537665662459807	-0.1119714462871995
-0.01092580137126873	-0.09654685028573251	-0.01770731287772337	-0.09555785947116127
-0.006768145700871129	-0.07571968756706099	-0.03391058186563662	0.0004918359899793016
-0.01550470938087821	-0.04848136612372398	-0.0301823404489817	0.04858550441225134
-0.00202753138922076	-0.03309195239884178	-0.03116611981919429	0.07035724621371876
0.01405682879135612	-0.008523662152775342	-0.01400233784927861	0.1158310391304463
0.02713227907383527	0.005094641082001793	0.00973050706354478	0.03949471491424004
0.0245327206077332	0.02992499479669634	0.009337292991675234	-0.01993088760663902
0.04426533759206487	0.02363418706121227	0.01131901569139445	-0.07995281055381302
0.05676854066692311	0.01087037762302604	0.01129580132054482	-0.08525399929207314
0.04959798655583606	0.06407411190458885	0.01772258194604609	-0.0836464637116808
0.04341891607431309	0.1085172826013312	0.02416842373231772	-0.04835973002491419
0.0269790678160706	0.1101482910618242	0.001275207210870622	-0.02956779005919723
0.001102680620159754	0.09423121872899591	-0.00347165988351228	-0.01462400003822455
0.0009374292317085393	0.09959632966837262	-0.003618175079416566	0.003753731685535856
0.003528616862236039	0.09756557811194498	0.001377420786776447	0.01813142630263932
-0.04093202579118577	0.03144273654297675	0.008796705399946161	0.03443051957087287
-0.07161629968611499	0.004583769176202381	-0.004403871496128533	-0.005890758300353312
-0.06625659072158427	-0.004709136199468736	-0.02665840237852547	-0.04005607841433781
-0.07262845184531247	-0.004653294990778851	-0.005717078827878851	-0.007502154726426851
-0.05646622363344202	0.008169023257612732	0.009583349254314319	0.005564448191141124
-0.03632381648666909	0.0003181757595967054	0.004426235017516991	0.01496630399439184
-0.01437630916352963	-0.03689711162152343	0.01470587356302333	0.04820173188270296
0.01476619308372269	-0.04083023112528374	0.00615145680462168	0.06547088547156352
0.01911905559872072	-0.1149955049613285	-0.001373742884054241	0.06286128356903456
0.01852891273939034	-0.1332452489392291	0.006749227518473862	0.06860969801460008
0.0307189295661648	-0.08582535024536783	0.04119243777810198	0.04227928276271813
0.04164368688846748	-0.05656960550477931	0.07045386201778006	0.02512230167586367
0.01812548346833311	-0.01634394917437452	0.03427305079554945	-0.01031388952379676
-0.009882668028075647	0.04087963802503398	0.004518172714843987	-0.04023322096609162
-0.01365038895329939	0.08275918852278193	-0.0304912905362544	-0.03792434039665858
-0.02932386068901057	0.06726366526847981	-0.033363767409055	-0.04547693788733474
-0.01124561699916488	0.0936299110623857	-0.03265014254913891	-0.02183002938382616
-0.01433445447974844	0.01885118297600408	-0.002333873525164953	0.009339564379044102
-0.02404284909526752	-0.0658932338845	-0.002441972690938608	0.00584909257056786
-0.01880212785533964	-0.0820719883304681	-0.01642453042084085	0.01450964203494745
-0.003975147861908329	-0.07273160197114771	-0.02792535310298494	0.01038197258699173
0.003578193286912452	-0.04766462698538017	-0.02457958002399159	-0.004638447697678886
-0.009322482591207538	-0.04060336818207848	-0.02213954279107391	0.02072936995011079
-0.00388364533111476	-0.03648950514277862	0.004280850156867965	0.03662697231684026
0.0158665833697867	-0.03753788979096018	0.01575095484229774	0.04525235347482828
0.03740821396558243	0.01550418663759116	0.001094434293994534	0.03030606868489283
0.0450889387307875	0.0318394869518184	0.0240471225297418	0.05250629377097595
0.03322638385738708	0.0283728483192343	0.03509237823601952	0.07490820221100478
0.03050532150991305	0.07656394894115962	0.03394088554930777	0.08093185270808426
0.03505838062848937	0.09036024239067648	0.01507947425288216	0.01733377031627552
0.02071418446256065	0.107482497849525	0.005325209209527743	-0.04497235092510039
0.001910114979216327	0.1302087099585615	-0.001977988928009255	-0.09762008188609674
-0.04608954391778823	0.0603369338946893	0.007487300058269129	-0.1140303195597901
-0.0349828166863121	0.003136654201008889	-0.005788475143670683	-0.0728232535100605
-0.02059354975520337	-0.02543311997292824	-0.001554573203979155	-0.01416089003123942
-0.03650183335292658	-0.05432273500948862	-0.0164913979204626	-0.02124142992240939
-0.02873531931498955	-0.05621581588481787	-0.01514357867979146	-0.01427514903737215
-0.01594910181786479	-0.03440751922031748	-0.02333390280735142	-0.008809150699575453
-0.004961188657656624	-0.05529399570083807	-0.01324001639093991	-0.00770582275090264
0.01365635738000656	-0.02303304781693333	-0.01366761886311166	-0.01201440159516418
0.02414653871114746	0.01611836197793805	0.0004902729979767657	-0.01583157160714354
0.02005420663969707	0.02435125430268149	0.005095310270736363	-0.008393238480985063
0.007620242810830074	0.02349559411468068	0.01255728002101784	0.007084241697217578
0.001844784739948887	0.05608375593086684	0.02071805344798288	0.01967352160556809
-0.0004726883512275476	0.02935758345030872	-0.008885391510546608	0.003959684563128289
0.004879492015200953	0.005855524877922448	-0.01955750951937906	0.002951493763871198
0.009199951588607355	0.02916613986521156	-0.02853789263080946	0.0144346649112455
0.01271436673880914	0.04007396628437442	-0.02311075380972419	0.01937640673710515
3.647023933838508e-05	0.03641308036237425	-0.006536458941754617	0.02651357012065466
-0.006149001786637895	0.01800941118939247	0.01523669961969221	0.02975242885500225
-0.003946392971754285	0.0525609381253023	0.01501030661700904	0.01998893710401903
-0.02395783545539971	0.01796420807640278	0.01484050239004367	0.02285946797516372
-0.0169707250056035	-0.05222501757088373	0.001944121649526852	0.03936778114356741
-0.004198343071356623	-0.09190158189411871	-0.005619874671504118	0.00993892305492854
-0.01077059672261841	-0.101970020243723	0.01740802832790645	0.008772772361130375
0.0001687085952865545	-0.110352394455742	0.02264832145598423	-0.01187374332605554
0.01462465627138119	-0.137525458922015	0.00791911321260164	-0.05325690196671105
0.02522561290648638	-0.1139667906450415	0.004042504000125009	-0.001271737595732443
0.03411070175689856	-0.02396530835269771	0.002611059821239352	0.09226331410115028
0.03537759591132626	0.01377877685659524	-0.02387193248747234	0.1748090945480714
0.01852454197849798	-0.0164545881931695	-0.04434368857162835	0.1536761956110743
0.01174144368208858	-0.04145735359101575	-0.04459240939772035	0.04294055086025367
0.001145057354061798	-0.05805755625227428	-0.03376716953504684	-0.08404417093013655
0.003075738736935021	-0.050821497375088	0.001293709495086989	-0.191889941211256
0.0006208223451678726	-0.01677346916597433	0.00686098328339917	-0.175289754474018
-0.001825367628929923	0.007258598733949555	0.02142902309584434	-0.1366874698978483
-0.01463802831504881	0.04487628774196184	0.02347332199890591	-0.05913182954697186
-0.01417970250202338	0.06791350044562498	0.03312343869561151	-0.04246822766458293
-0.02209355835585623	0.0544573663159774	0.02750421187995059	-0.02940665036668282
-0.02159916574172534	0.04498024011621055	0.009634980255668328	-0.01577802869144966
-0.01672667735102352	-0.003509226831133094	-0.004457303853376831	0.01245188912033012
-0.00709697226596038	-0.03595438857680208	0.004256575988722458	0.02129492845708668
0.006907027717248699	0.0353212033444554	0.008389488672687438	0.01283886876445736
0.01900042210581102	0.05133768147674501	-0.01004173411415954	-0.01044744892617479
0.009769863530352507	0.04247730157295484	0.02294829320427315	-0.007163174519954445
0.01211870870106331	0.03882752537578804	0.01502472112310072	0.002906224352637427
0.01684390978608621	0.01080075958056567	0.003318169793090763	0.0103117690363985
0.01215052810108199	0.04587688449527726	0.001626069927958206	0.001529284203536304
0.01080503003335053	0.07493231827494103	-0.003013655334817269	3.316750093070898e-05
0.005183441094123878	0.07627842127258329	-0.01559381844941905	0.005466716728265672
0.008615365108379359	0.05273943569418468	-0.02827418017494936	0.002854151315718356
0.007299019031849139	0.07600752275196081	-0.04076236318478572	0.002714780599005245
0.006147404676769367	0.05695047894019356	-0.03331728097252482	0.01591025935601375
-0.008196296840941565	0.007093438320357068	-0.02187856979029359	0.006443135553821516
-0.01978265282971183	-0.004207580739059844	-0.0007564007447661851	0.02326370199847151
-0.03091035857453527	0.002680346019566395	-0.009935030271291794	0.02263503283536649
-0.05088129375650935	-0.07041262096373979	-0.002739251642910032	0.02800038521036037
-0.03515194793789008	-0.1148775418227275	0.005100875229930254	0.009914312999229877
-0.02162294472358833	-0.1240889734441085	0.01964748855039702	0.01589201692536845
-0.007091218168234487	-0.1164211131796219	0.01553989695497773	0.04045038693141914
-0.003134958981842928	-0.07704785133923951	-0.0005471499306956949	0.01008002495840978
0.02445456925113266	-0.02281241376031421	-0.005071024453398719	-0.005737471195130802
0.02977909110209084	0.07992519197121514	0.0009629801695787456	0.01518423262092564
0.04499666278392747	0.1381470930086892	0.01220745837177317	0.04652664189668241
0.04748267277803175	0.07368428621673724	0.01334240582753878	0.04958460475863086
0.04344581244540244	0.01713701641904526	-0.006206147596899987	0.02274127438544722
0.05137680707015716	0.007020465338065439	-0.02368166345892135	-0.04880789509536379
0.03577762149617697	0.0004640127453458675	-0.01234790470110638	-0.08178306760567858
-0.01709698806343964	-0.01223528934255621	-0.00188955118540393	-0.07370421585071214
-0.04185047148210584	-0.04742425147087347	0.003728100871752957	-0.03872400049231534
-0.06643913810632611	-0.06878567967297457	0.007907472162546076	-0.004039222374267767
-0.09075903844362837	-0.09525781836181098	0.02755772706847796	0.02434907900635211
-0.08674778628202308	-0.06054251709028817	0.02531423844411912	0.02558313024062894
-0.03141278124620429	0.04398976166691074	-0.002160581770728573	0.02515704324749193
-0.02464227039223445	0.0006244381206338154	-0.01048850926870105	0.02071631532728484
-0.0221627689057414	-0.06392766892005818	-0.01664759263742235	0.01052397042972414
-0.01558499220011635	-0.06323430193784671	0.002957042541331815	0.01865727467494298
-0.01636236284513487	-0.01346961206017999	-0.01173885717912779	0.007519617645178494
-0.02148157943732112	0.0194357664398642	-0.02614260559340111	0.006755687175242802
-0.01061795049135976	0.06878908464421295	-0.01382326538629085	0.06624892919708074
0.0002623659867714173	0.06868123241994714	0.01469159547533488	0.08552445593853343
0.001657357493224973	0.028425923793441	0.04150005852574219	0.1077983437961226
0.001546713255274708	0.009261556153176032	0.06563483436338632	0.1119854787259374
0.004226934473934822	-0.001508949522213457	0.05103183847502447	0.1307069470214682
0.01392620411735975	-0.01049690535896746	0.04325193270284286	0.1006807689817929
0.01884546968182093	0.005126331537048164	0.03442056326657938	0.01135075965466038
0.0116838093539749	0.01772399725957818	0.01254450991951064	-0.1395534044152092
0.001538223034774208	-0.0165119974655957	-0.005346105582510187	-0.1965515113790417
0.001204121660413243	0.0040109385124626	-0.01808806275016601	-0.1553114906627779
0.00478904433479139	0.03843523673516482	-0.03316579765126421	-0.1270700173668298
0.007950231123114937	0.02875320718607881	-0.03302594969831851	-0.09381478872883339
0.02182809159817742	0.01381630165573478	-0.03717694261582373	-0.0419246019817864
0.02174412021296046	0.01284548898470719	-0.02671515242963423	-0.0703320091960348
0.01889847494556919	0.002388117212822561	-0.005702235404091665	-0.08821374990993226
0.01795892367812301	0.02036492246410422	0.008843466040026938	-0.05669993605369464
0.02573817760469314	0.07868381049825438	0.02640978836462374	-0.02141931587266788
0.03475142378645587	0.1107260000309268	0.02059500423788246	0.005214948301274508
0.03151755797116951	0.1261300283642949	0.01560310772558734	0.01381598197534371
0.03399197782701305	0.07193110352314168	0.01067187050620583	0.01881764679305248
0.0183666083220142	-0.02342753417714439	0.01951230592965376	0.01297821474356933
0.01412976555851727	-0.03252820506833774	0.01865253963970404	0.02652809441559387
0.006721581428576298	-0.0144924028294263	-0.006747278205668864	0.01770084435957202
-0.02156761738487546	-0.05664154709832459	-0.02408150109266955	0.01616188243620957
-0.01181947507288878	-0.03025483936481925	-0.03539396832353664	0.02838494089047753
-0.0008783051836468758	-0.02297209702316406	-0.04706935095719127	0.03192044971153757
0.00173580210197753	-0.03137047839299761	-0.04668202221349358	0.03442662560368845
0.001543830589418396	-0.01988797527334622	-0.03225025243059301	0.04283196944918979
0.01058057792076822	-0.01114929241053331	-0.004984784560458857	0.003311155058431099
0.02005591564373055	0.001399910603671907	-0.003414272103886698	0.007487353058670597
0.01573772237515928	0.006571470405941931	-0.003834804463327679	0.01823758460158248
-0.001564418953997222	-0.02897051904512598	-0.007114844875841107	-0.006333883231151464
0.006654543194980555	-0.02855251656323314	0.0001250681903943874	-0.01123526191608022
0.008106855979603703	-0.01605466004225167	0.01506508314482301	0.002455242025675445
0.01980223929471916	0.01594687193909072	0.009317321691719954	0.01416909151317698
0.02106494344448132	0.04871485362281667	0.01798081973081048	0.02355795532142896
0.007094507479776786	0.02664627146343892	0.01099686187632126	0.02116720400258708
-0.007930050892677391	-0.01058901231886515	0.01893456255488034	0.01892899843804399
-0.0248726968056921	-0.08108690754731657	0.03448895828155384	0.01179531554531815
-0.002599201504852918	-0.1267955211340696	0.0192672203002282	-0.006873401876871806
0.02383694226842845	-0.1227581992891792	-0.00720817900159934	0.008298129114843783
0.02513837285010647	-0.1396873347242587	-0.003912175813890653	0.021545877943715
0.009461092634957332	-0.1661337052129956	0.007941449740651406	0.02545543820219781
-0.006114787297440519	-0.1109976499905177	0.003188968532993291	0.0215037567942015
0.005426294512619332	-0.07071493314074319	-0.007542406384887365	0.00333153907832754
0.0009291738124251997	0.01506500974609507	-0.005787813524198176	-0.004165075767559719
-0.04234938074436348	0.04874260293469621	-0.02007211462453283	-0.03818086534601291
-0.04817591373030354	0.06398770869613732	-0.02028601066036185	-0.0122664429922851
-0.01365450677072899	0.09231086405975066	-0.0235735063894351	-0.01622690157605907
0.006437929519752532	0.1285415355926978	-0.01296882126399739	-0.003601203423661941
-0.02135740131986433	0.141797980287213	0.001759899547895052	0.03662134121199223
-0.02849473931482559	0.137191146507602	0.01773091090540074	0.05284083700596297
-0.02415906944816599	0.08226404797401247	0.005783402436680048	0.02974733318949342
-0.002413115725030766	0.07681342667105388	-0.0194795837768039	0.005598272093792676
0.0087596127469831	0.07336062972212211	-0.02763645662417992	0.001385322733774207
0.0008526469139505375	0.03908977392441543	0.005693243603148818	0.0144843268014357
-0.01057822327111594	-0.04146383656346397	0.01979835830535095	0.02699233892435192
-0.0114028673228459	-0.03435975541141785	0.009889106955300717	0.02648909928930959
-0.006329557853881515	-0.02562944871505788	-0.003697671368162729	-0.004514666823702457
-0.004263682523432134	-0.01720198165629353	-0.0008995843197584848	-0.004814237084814851
-0.02247300100898765	-0.1159145217454299	0.004985235569200242	-0.008490852443688933
-0.007384228124075103	-0.1221582140955518	-0.003226383459450276	-0.01778287750364033
-0.001738941793176766	-0.138022749189767	-0.01381589023660308	-0.02391260459779432
0.008119958332412091	-0.1418278626526562	-0.0278909113278973	-0.02801761452599906
0.01736851586885859	-0.09694004706899648	-0.02410634020806172	-0.0289775230161469
0.01207777810678446	0.007363212586748899	-0.02719270517399443	-0.02253720248978074
0.01055362316820758	0.08041854933064176	-0.04054346393793989	-0.02160329572565943
0.008894669690983849	0.1093089458744084	-0.02272592868482634	-0.002117631604257729
0.005187869544719603	0.07767427970179226	0.005570019608354704	0.01225846302317308
-0.01561235143058558	0.0110186768438832	0.02910081999465405	0.01791062894171164
-0.03518932927698523	-0.03529245373720899	0.038246477645441	0.007496842599325775
-0.01545306676217319	-0.05450223274860649	0.02942336221989938	0.01222800840699739
-7.092499607589146e-05	-0.05697608926705734	0.02538194266999502	0.008174893522361459
-0.00448105591528475	-0.06365333108212429	0.02492159572978333	0.01146528988747826
-0.01490665706552099	-0.02053535752872503	0.02970241687216778	-0.005160480927288862
-0.003912654359554135	0.08542589114112892	0.01808152907629195	-0.02380012052203771
-0.0003977733148921143	0.1269902253126803	-0.00042677069596009	-0.0231828287550676
0.003904108083890062	0.08850400753029956	0.01035531067947888	-0.02580234924592147
0.02214185896166302	0.1033427741568493	0.01604746082920004	-0.0128024030237486
0.02813667431324656	0.1858692007093215	-0.006621011384577666	-0.02025971032632403
0.02327884506180253	0.1833355005782118	-0.006133812979372499	-0.02401476292580464
0.0169410609563708	0.07701574212932356	-0.006135127178535224	-0.02903301808224059
0.01602762771444939	0.02278267967462741	0.01257075931134271	-0.006566678531873539
0.01825969069416574	-0.01967859068217526	0.0163622930414888	0.0369453202161164
0.01478826722556961	-0.07296488695629218	0.02258576498801609	0.0135913198423659
0.01914540961527693	-0.1773720961754643	0.0305712828167763	0.04025327915247399
0.02998315542822839	-0.2182985627048672	0.01787704686213933	0.03699421653776928
0.007762664588726464	-0.1476459141486976	0.002988643965176248	-0.001215846799049174
-0.000527013658998308	-0.08451925214071378	-0.01439602204875837	-0.03873880820650837
-0.01418392894912539	-0.0131204819474441	-0.00394040254925055	-0.05703951012791684
-0.01188388121180196	0.05184000228661959	0.001320536500662428	-0.05116083403351278
-0.01639387032771492	0.04911370452452046	-0.02041467106679042	-0.05025989835143141
-0.02350277516191486	0.02455636282668225	-0.02657218758643692	-0.03984941688961291
-0.02922458857322535	-0.009648833419092928	-0.03457860189826571	-0.02308243435149781
-0.01830253277216448	-0.007677240370113318	-0.008309457287179021	-0.001796862094448214
-0.02758387714332415	0.07490890079761062	-0.0008466400993258545	0.01006941830120786
-0.009867792753116191	0.09176432933874457	-0.0009403206177710567	0.01407225138867663
0.01116030395838522	0.1194600488393459	-0.008764093696049042	0.01218222091086204
0.01432027749814545	0.1028996881809297	-0.02378171486520825	0.04249915616992747
-0.005334228452323226	0.08980710786224295	-0.0487835171267714	0.103600716285339
-0.00449089102375839	0.02112824310069582	-0.03790438848724673	0.1059560771835481
-0.005061316843862706	-0.1015048765083896	0.02542936900718605	0.03083591787454249
-0.005582027564952199	-0.06175690545399153	0.03621045110652767	-0.07982019631767398
0.006913704794355091	0.04036927851094471	0.03068872233417543	-0.1036238119808369
0.01355625697335077	0.09634288170048803	0.03596245367433608	-0.08438329077468541
0.004546971749604601	0.09077127050992986	0.03433581130152785	-0.03703495738902095
-0.0007450924285848036	0.04128156006625453	0.005610538352458056	-0.0337532465619269
0.004735419092490225	0.001623485396117865	-0.002674351344022396	-0.02304903629273853
0.01527607982704164	0.005231417162122221	0.01024548216442674	0.007943789825071063
0.001979984696808854	-0.02640522995215238	-0.01383074312430507	0.00761815076849656
-0.008766491810783787	-0.05605180858042134	-0.01703823376582742	0.01761341649756561
-0.00968734023108876	-0.06791892660502634	-0.003100330022064456	0.06603925177030863
-0.0009575237965196066	-0.07757545296827394	-0.004369195100472808	0.08817132351101492
-0.01191776270919392	-0.07548956692587923	-0.03062291743406058	0.0153112148652386
-0.02205944577456563	-0.1041330245657476	-0.003693642856622508	-0.0003212191560266009
-0.03582825022866078	-0.07880956369700987	-0.005527014644900286	-0.02378260105120785
-0.06794296237067915	-0.0775988196398755	-0.01644609814080904	-0.04235179797689653
-0.033800819670044	-0.05171624573603142	-0.01244136317687603	-0.009077844240896905
-0.01065394822752509	-0.05734298999490016	0.01887761008103636	0.03117883231186137
0.002790528652905208	-0.05893016305815609	0.02969540524330631	0.03308407616654521
0.006049004583563083	-0.05927973101866797	0.03829879103426265	0.02406866146714396
0.01314749061742757	-0.03517536011881694	0.01436077844938601	-0.006768121638971876
0.01444194770482255	-0.03573148367244464	-0.01656217440059395	0.0259711417221742
0.004128616214036255	0.004167556375196484	-0.00246902247724174	-0.02828106115607476
0.004718885410699062	0.02647186766231963	-0.004243913257809576	-0.04883471560608298
-0.01210702782119277	0.01082968300615322	-0.01953740761995889	-0.01957323566229496
-0.003779906588875151	0.01556693761846329	-0.03241019588108419	0.004072239641880148
0.01720390400754698	0.09112777662171101	-0.006431299771986037	0.02684824815693111
0.01799653675687372	0.05524675529293207	-0.009556391370595236	0.02997346189365731
0.01492113099770416	0.02009430353115937	0.01015998428808817	-0.002525605114986367
0.0165436886036585	0.01664294842818056	0.02084362598649329	-0.01599857267811546
0.02007687653129869	0.02515047650947235	0.03649088538825242	0.01007079462386309
0.02403920152559137	0.09954692741450517	0.02967932034383253	0.02042699424180021
0.01477507476852428	0.09657883276871987	0.018123022076522	0.04766043769773483
0.009156272254907919	0.0589377058697739	0.01840715286684119	0.04881579268077647
0.02131859956943284	0.06268337801866911	0.0003935858306328419	0.1110130316306475
0.02046156241681057	0.08040932070100694	0.007054451797248456	0.09599956723560484
0.01750688075305315	0.07574132249691143	-0.01723011360417985	0.04968578455519361
0.02053436964076789	0.02112446430777613	-0.0412531250651795	-0.03585509125383297
0.01243508132954763	-0.0126205776290553	-0.04721067612640955	-0.08996590751046167
0.01473346879580057	0.004266460894657046	-0.04896025172701525	-0.1037511794719084
0.01340773701660023	-0.01309844413934332	-0.0310134517623589	-0.06022107065617452
-0.01385505239305576	-0.08583751479067103	-0.03212260230491712	-0.01878286096070498
-0.003938724546480967	-0.1428832512489328	-0.0236605721644827	-0.002923797942821375
0.008036639107308924	-0.1396775407548283	0.02557391423917088	-0.003298246365546641
-0.002813502218578721	-0.1573197815494556	0.02451138184484543	0.01093070000959356
0.005291550479825225	-0.1366236950889348	0.01948375074536551	0.01785739010636977
0.006069446516621529	-0.01679338153387375	0.01755326398068787	0.03043833383423882
-0.002147488045610836	0.03211158101374147	0.0134359618598964	0.02628304628245763
0.009979678475565688	0.02516767242058559	0.004922348715324786	0.001282321144961353
0.006664012887180628	-0.003605518832367012	-0.02022123898568871	0.002586445827738487
0.006150659797186592	-0.03682457653242403	-0.02221429793170447	-0.002138666764306965
0.005991588182003973	-0.04715584941440679	-0.00658699445830702	-0.001013351742365014
0.0006606704574826378	-0.02543143628367617	-0.004369446151703614	-0.004326096300521848
0.00157291723019602	0.02346859801716913	0.001540631586567524	0.004474391665753679
-0.01351612968910769	0.05470934443386012	0.01699087946469851	-0.003974904592821262
-0.0286546885134322	0.08577558939405315	0.006559757026499559	-0.001942824212454111
-0.04567338128519094	0.09560689805300361	-0.005986466663883087	0.01804941255459322
-0.01619630343244563	0.09122213243018402	-0.02112108463072718	0.00989426764734453
-0.01938139668278199	0.07368380208516576	-0.02001961010897691	0.01312507027099458
-0.02006330981336024	0.03634720049854958	-0.01986814257110816	-0.008598661501809565
-0.02276873372025091	0.01286366696262379	-0.0119414667251338	-0.05037985373927944
-0.02698611976381389	-0.09427394463739486	0.01308558513126662	-0.05581564502101129
-0.01831829492213124	-0.10666318280375	0.02807043834450619	-0.00821418097862249
-0.008802162288153897	-0.06747024265569884	0.019121575014042	0.02875432647105216
0.007900827743702462	-0.02771026266169043	0.00461504636798917	-0.0004264161348026886
0.01219394459671138	-0.004553613188658257	0.007263254900990298	-0.009074763282388244
0.01628387082859303	0.02863842566228482	-0.007823970399107177	-0.01663808862859054
0.03891496959034144	0.1104049470547387	-0.001645424262425787	-0.01412629928600468
0.03886892828887505	0.08726097431020124	-0.002147535886340087	-0.0148068412193526
0.02972537025744319	-0.02287029773923799	-0.0118086269302334	0.01489810287937981
0.02235684369350009	-0.05072464916938615	-0.006205887975944833	0.05259411063725814
0.02430959788173617	-0.0005047491151133196	0.003693764155684374	0.05212305530449804
0.02304768170659959	0.03286681142263909	0.001605783493359724	0.03107103664973125
0.01381698455197428	0.05698373779752418	-0.0108495210263931	-0.008378899091238725
-0.01916812348115143	0.08337475492670295	-0.01303378972195085	-0.03958836160871188
-0.03002297148887033	0.1272538395913745	0.009345425990093503	-0.03857625668839212
-0.02283180061125897	0.0863461856389585	0.01979046117022041	-0.03402653175169212
-0.01215767519835033	0.02996990805721323	0.01825081913982827	-0.0249344403657872
0.005218340825992536	0.03476944437480246	0.03527231840696369	-0.01014656709686458
0.01269639739740554	0.04343028142525807	0.05333640730229282	0.01634226907346154
0.0155673262092592	-0.0205140190866617	0.05940431865302309	0.0217896549653794
0.01273183249920149	-0.06562912779945436	0.0526525961041656	0.02710015711644784
-0.00665110972486486	-0.01813093381030216	0.02746757546114007	0.01073911894542676
-0.00373462903986324	-0.02089397960433373	-0.005324127673672576	-0.007248807196045599
-0.03425947374779614	-0.04296830218646066	-0.01388434956269876	-0.042914258342238
-0.08138773915671589	-0.04282992697722843	-0.003057198070173487	0.01787965806210064
-0.05871135425190666	-0.06896723764866196	0.003518262781531698	0.05441121748058331
-0.01319012504613075	-0.06089487684101354	0.009635520206797619	0.02632089604527699
-0.007827014002423888	-0.05597390186646331	-0.00903862743754567	-0.0218223272813792
-0.002447269091482341	-0.02043087003402982	-0.01041924831752943	-0.05837038336942399
-0.008238802070886906	0.02764874419374141	-0.01415823191114263	-0.07818134789451026
0.00174011970131961	0.05423540185083442	-0.01772842980517593	-0.0569487851595845
0.004387267197582728	0.02395071405277743	-0.01030867697294778	-0.04559231596028894
0.00719451400228776	-0.01805712484875108	-0.0004567677001314243	-0.04877807134952596
0.009171175976311225	-0.04081729387176738	-0.000837720331479811	-0.03689412699058211
3.960638373690914e-05	-0.09529401351420551	0.0004156502749881682	-0.01564008467408973
0.009992479514604516	-0.03966493039370392	0.008015745258435443	-0.007605204581562006
0.004249725227491304	-0.02413480690516683	0.0002274791525401815	0.01787283583948653
0.02528603542931676	0.0576604997934017	0.001392520261191651	0.1361417479486017
0.005805107699328042	0.05416958409336441	-0.02629603509047977	0.1752207566072676
-0.03203744062143898	0.003656448488933357	-0.0502086680535823	0.1237038826183709
-0.02383558043347626	-0.01298690279589211	-0.0209550769381076	0.0253735967015173
-0.005995670652773636	-0.06782380084046399	-0.01267727863726771	-0.06670618177339821
-0.0001993038228463951	-0.06117834745041027	-0.01241228158480577	-0.08808858794829061
0.005952618728591917	-0.05679396890056328	-0.003274337042166609	-0.03730643513919202
0.02644307271592373	-0.01523087006906568	-0.002770095367255064	-0.04539481210720104
0.005020381973845252	0.01010041906662755	-0.0003034524166466429	-0.03439787885199259
0.01287672876202688	0.05781961289727502	-0.04257764569629831	-0.05524270579569488
0.01224367749027794	0.07984026437266566	-0.03820574507111038	-0.07383228504011904
0.002714151965741531	0.0421057383478371	-0.04035789881056562	-0.06440872018042446
-0.0003907991471590474	-0.03105607985452565	-0.003826721681748852	-0.03281387395293978
0.02659061222809372	-0.03187181130524407	0.03293412819127792	0.008981268453787772
-0.0002963545925192116	-0.05655343067545014	0.02740719581508645	-0.01000933193822675
0.0006110722179048158	-0.02061750298880335	0.05353105166898172	-0.003440042859047338
0.0119729288636129	-0.0003960254943012824	0.05818324379963175	0.01286921713689195
0.01513642657378674	0.0008336256848152366	0.06446945821176903	0.05677484886767707
0.02273355438807957	0.05656245518198424	0.02852433796427135	0.0723729972622279
0.01710074547187312	0.1330280074956091	0.01825294884783326	0.06772155849380225
0.01709211897243251	0.05364909472480538	0.01066946021174023	0.0405007008649324
-0.005760429556242628	-0.07551933047733431	-0.0009146851873761174	-0.01340103719830077
0.004931100025800485	-0.1062755125290636	-0.0274320049730166	-0.03302277955185874
-0.01547815557302284	-0.0432892095139279	-0.02820830494664379	-0.01019561843982994
-0.02207357324484042	-0.01713730784092924	-0.03392311774713901	-0.02303976417599967
-0.01330225586446861	0.01330211537763316	-0.03048420682146667	-0.008479419869540827
-0.001794560555024481	0.02898192283418719	-0.02474706559254986	0.01475443928314346
-0.01546527947219284	-0.01531252296399016	-0.009849781404471862	0.007545982699758458
-0.02514817117346011	-0.007047637040846922	-0.01527230447740642	-0.03435287205443784
-0.01723556780764829	-0.02742770778238974	0.002534638756344576	-0.0277181721844393
0.01034838723503912	-0.07406808686983785	0.01620748303064768	0.009397624535860682
0.02266241747969348	-0.09347723582080682	-0.02356356689849983	0.02524704131483937
0.0506487642052246	0.07298174533012811	-0.02355078270560612	0.05226239968089187
0.05339733750058397	0.1508775165615038	-0.04571353218835666	0.07830189523786646
0.04860846585389901	0.142596922171692	-0.06841393614110013	0.07252402714747212
0.03672449102561076	0.07586950709217161	-0.04846326426940532	0.09084362058687086
0.02133879854229031	0.04389624201174495	0.01239817754680216	0.07587347296883112
-0.03958330822980907	0.01328498635459455	0.03570459722214601	0.05025475176921228
-0.05774506418813148	0.0050596861237617	0.03571901373805275	0.02239161484847371
-0.04486503443518825	0.01619066535965033	0.01383879040303631	-0.006481191489172648
-0.01975134980448954	0.01332690354635909	0.01594252086723377	-0.03041395734115465
0.01848267909891326	0.01186624802564915	0.006452277067829851	-0.05005547337992228
0.01135207973223896	0.004128604823910919	-0.002395421435095445	-0.05877414211534449
-0.01548435575244508	-0.04394939707339388	-0.01999458889961431	-0.04630241077990249
-0.0003294769332473096	-0.05434377911487053	-0.0224618904918796	-0.04673245814494123
0.006131748803630407	-0.03932755854082245	-0.001494934083400398	-0.02630948560895958
0.005694711978221227	-0.06469730474989178	-0.02029394330728884	0.001638078035259213
-0.04413375116191179	-0.09609860610949589	-0.01497438226805025	0.009446682957244608
-0.04988363939090079	-0.04660847010252329	0.0151327649628224	0.04050762936112535
-0.03926727679558699	-0.01454079518323849	0.04023955744422106	0.05465930427112951
0.02072625924826702	0.002707312350706864	0.04536677641007272	0.02881636921236336
0.0194644462610799	0.01352753321631216	0.0399178627398399	0.02602969000582765
0.01182686554092037	-0.01690046540862199	0.02573467645760684	-0.03660263687096283
-0.007800678087442926	0.007294292953226167	0.01803298842744279	-0.03995090946470488
-0.01767210254512535	0.01382719670319576	0.01401211919670969	0.05877115767253063
-0.01939676491710293	0.06064709844241094	0.007980256256241177	0.1242507228251956
-0.0200028903775628	0.04250441113772199	0.01407542364017207	0.1417464988047322
-0.004416615003538237	0.02686166336592939	0.00782622843661757	0.106544556104299
0.0117917347441792	0.03045640463681638	0.00196243758914778	0.01571843361791738
0.01156295707247363	0.05643058914051233	-0.004085808968975499	-0.07873155130008648
0.02128716338112131	0.05931522739809423	-0.006389429291109115	-0.1779357712513834
0.023321821488414	0.04742214119901216	0.0107023849404615	-0.1547405784456185
0.03769631259079351	0.03922380228032919	0.01350080123818176	-0.1283028965750458
0.0445595397284515	0.01565960089268055	0.01345352498608866	-0.09984612822739876
0.03992736622018146	-0.01999619992452597	-0.0006206354318278491	-0.04928523671453016
0.0403223435781427	-0.07017717909160874	0.004629594377762537	-0.01942839254593771
0.03781043573702271	-0.06578790486854079	-0.01166608974081435	-0.01753842109948444
0.03297775206109232	-0.07571517696490362	-0.01115568291215485	-0.006652853667216427
-0.0172231038668253	-0.07967469767256694	-0.009982034511830428	-0.03403172583725179
-0.03454858794861704	-0.06963577136196256	0.001404301566348293	-0.07058217834436517
-0.0713617428385067	-0.04229930591015285	0.007402874884319448	-0.04424755376082654
-0.07136856913729844	-0.03558400795778907	0.01197041096078289	-0.005551085963127238
-0.03646426972316514	-0.01737360590389795	0.003651843163002267	0.0006048901236462096
-0.03135007409072596	-0.01137460375925735	0.0007708456409102524	0.01036436174210132
-0.02096624694934283	-0.009141394260879284	-0.007449514449732586	0.009328756363202946
-0.007352985719033545	0.02760124057418505	-0.01265754891071302	0.001369362965244515
0.007497290988675508	0.08092192713983395	-0.007560275464583677	0.03308721919332273
-0.0003129960194088889	0.07508255443091484	-0.008240097070475936	0.04433988374473085
0.0004576729425971994	0.02463473532084703	-0.01404389485345363	0.1202185704987892
0.008710070209805331	-0.02246699982157445	0.0007722973618709415	0.1248913924718662
0.02472523645641331	-0.008412513584063546	0.0119430370080632	0.08319183531590428
0.01161972023830601	-0.01663170501906501	0.01698085367722266	0.0533027959713261
0.003515477506184678	-0.02240287813228944	0.02402537699964197	-0.006985034048634658
0.01454445740405446	0.03302486535516924	0.01147462404122321	-0.08296577024215003
0.00850613355616652	0.0463606622269504	-0.02329506094621659	0.08680004094068172
0.02811452794785591	0.06655774474406707	0.001670864268195001	0.1279478166428752
0.02884753494116921	0.1098868419699318	-0.006609826777934968	0.04588973626168825
-0.001172774177497913	0.07813375787463381	0.005532835350470685	-0.03013949935611386
-0.03067335072175839	0.00255404893018188	-0.0002184154968520417	-0.1282620157287847
-0.01500999303939049	-0.02634777849794679	0.01893539947147193	-0.1204831858115329
0.001014849941250637	-0.04489621080393626	0.004122295151327728	-0.111718754910003
-0.01532881436803897	-0.08004914848044878	-0.01764907556910766	-0.06407739367328827
-0.03369525080068848	-0.08671617160347878	-0.0190716912498094	-0.03971251486890783
-0.04446660810664541	-0.07942935590598214	-0.03454927205045804	-0.03256046122432436
-0.02746752174481058	0.03317781735076567	-0.04039368142987229	-0.04222412959539103
-0.01878361296780928	0.1070999884525852	-0.0324113060094478	-0.06351223331850651
0.008563488629820233	0.1098787420625949	-0.02521817547012544	-0.06046518361574887
0.03183953149354252	0.09506090435950919	-0.01060266120113611	-0.01335891065004329
0.02581968116687164	0.02974233270683692	0.007710780967831478	0.01356539941961047
-0.0004373901123340745	-0.03817020552984739	0.008388966403581962	0.0122744027216333
0.009074708521742175	-0.08925273990912372	0.0106461974626489	0.02448505409444955
0.01267624148729428	-0.1212046187419675	0.01431137768710476	0.04606287403320874
0.003152938064662319	-0.06531798242063273	0.007366843844988771	0.04682566414082812
0.0074647228344552	-0.0381483372888222	-0.001682199349770013	0.04143753872239598
-0.009580190694200207	-0.0804553852752176	-0.003705067170095641	0.02636686884564268
-0.01291107999472363	-0.06720214638549553	0.008504839587861012	0.01362884429714426
-0.03798256169073149	-0.02777833059663767	-0.002809454106827219	-0.01739961573494533
-0.02505872713402861	-0.03197380387838421	-0.0112702489868704	-0.007532559213346073
-0.02638624174320358	-0.03447688616320502	-0.03625808622746618	-0.001375161830564714
-0.02669287254848221	-0.003364369685637599	-0.03827523900917195	-0.010083276578336
-0.01916119459606586	0.04929148223035392	-0.03164216075354036	0.004875799020108558
-0.00308409256647837	0.0543855451867755	-0.01926917480952728	0.02948859536516098
0.01623708368453191	0.0581364397211731	-0.00339766948442128	0.04568017449004135
0.03013211433058897	0.06208332860829956	0.02371702756089721	0.06551240724774333
0.05624236382687867	0.1213903956464985	0.03734904936082949	0.0528695886471084
0.04485292931449544	0.09006657448805962	0.03772193644523966	0.01894361177886811
0.03301988193952009	-0.006458044019776097	0.03206945851670966	-0.005030797352086767
0.02951986485776008	-0.02241796805578384	0.01461085859576925	0.003998832300366271
0.01600830541735833	-0.05474062988306564	0.01110106112019832	0.01176813065971527
0.01613542841287015	-0.0218498812075027	0.002919189594023154	0.04635606921456866
0.001863989480590698	-0.04972934845516407	-0.0118293910400853	0.04448112288463174
-0.004908824935917089	-0.06787238146700245	-0.0033829154931713	0.04273405885821298
-0.0002136029601446225	-0.02463175430590548	0.03763317818482033	0.0472782617051111
0.004620821474210007	0.1034762162691788	0.02195026042260795	0.04859656667991619
0.007716181942151368	0.2096787015824053	0.0114605399764828	0.06594484436791816
0.01485213153711433	0.2593147837311562	-0.01294401205067592	0.08630635846278159
0.02035450517292082	0.1707031248385627	-0.02371941376221212	0.03571290258645667
0.01600689379461086	0.0587349132137093	-0.03730653404061727	-0.06997263108594677
0.01107007632486812	-0.1802722935339359	-0.03414738910396171	-0.1458925818408235
0.01217029608813909	-0.2977179735078646	-0.02503395876560262	-0.1090578284900785
0.02577621516197913	-0.2300953862997577	-0.02021784250291928	-0.03925852298991057
0.02068056354971753	-0.1737798504566094	-0.01391667638710086	-0.01083059616077396
0.0154702530310511	-0.1261923966488213	0.01230656149094251	0.006745505315098797
0.001457383422258348	-0.1014280776302379	0.03412783217674323	0.007924269475291418
0.005888995991596802	-0.05508318671035707	0.04428168461528235	0.01559636450647551
0.0008430041959107419	-0.02709338314834321	0.02102549827045734	-0.002953711725130153
-0.004673261696225067	-0.01311635610205601	0.02333748040607697	-0.01284332822858453
-0.005443086966141593	0.006550697253080668	0.01278318467026123	-0.02571619412195761
-0.004380533887329513	0.02378057123414998	0.0110781180617812	-0.02470406789391284
-0.01472034513520864	-0.01190210750290257	0.017568469511348	-0.01902656992854668
-0.02262410116936587	-0.003966797398088422	0.04835873727065308	-0.03189903531430277
-0.0251401964978217	-0.003699013148110834	0.04694615906546389	-0.01847002589734523
-0.0219183136305869	0.04820955980754453	0.02386968341743133	0.02392854859106556
-0.01857150584637072	0.1038079158820361	-0.003247800427457063	0.05704726066720375
-0.05330240710940699	0.114183606445445	-0.0157865690806932	0.07405616860227092
-0.04579184231399429	0.1204962098306182	-0.01753353110583409	0.08170835436900022
0.007512935008606966	0.02700887550521067	-0.04033399934097001	0.07940688685466715
0.02813226630110363	0.01644766134488093	-0.02272460677849732	0.0531414168009867
0.01019830035278612	-0.01284861109100876	-0.002573479389883144	0.01945878330138565
-0.003287718927333792	-0.06267696010675172	-0.007263569462848561	-0.003138699242804217
0.01334369570921879	-0.01461548738531694	-0.03058724206150431	-0.04682283029130354
0.02796124041011933	0.0635282521298608	-0.06529670875014426	-0.01002496316554884
0.01058341386257065	0.09781570275292083	-0.01662421286199153	-0.03693155315384273
-0.07693293620770095	0.1481608737554736	0.01761416860851131	-0.08344331475003249
-0.1134142651126636	0.1478505401115711	0.01939914378792501	-0.1378964365116409
-0.07945703916896714	0.1767297530247233	0.04869493934724291	-0.1036444646863353
-0.01658414320487805	0.1293740955410994	0.04313000605223111	-0.06725057592478628
0.0005508710748607601	0.1069775097719516	0.02930479581967002	-0.05656380398035978
0.01362695079178321	0.01268295037157817	0.02731769567570862	-0.03913474852269724
0.02255291744944374	-0.02350243747385431	8.350103041208936e-05	-0.07130464974619501
0.004424004904057544	-0.1333014308315406	-0.03737045864505932	-0.0821403716118911
0.003231951005054758	-0.1746732126138601	-0.02232726129553065	-0.04593105261436523
0.01964542469612141	-0.09728630619687693	-0.01250637608834924	0.009622538401260284
0.04499854793675716	-0.02679856591174907	-0.02890462680506832	0.06041637224062578
0.03795041455437412	0.02958675625074545	-0.04460152879553692	0.1164452637108261
0.03484083769409332	0.0566336660060001	-0.02742666188512329	0.1079192434331322
0.02706999049954835	0.01923971334033587	-0.01604774122994834	0.07160220159625955
0.03052885642044782	-0.003229755343437959	-0.0110248536055284	0.02627700230064381
0.04050397000913058	-0.09799657601329534	0.01570501205408815	-0.03285137596402046
0.006772310538862389	-0.0926074997419857	0.0106553008871993	-0.08822674020562762
-0.04105032149394761	-0.08536246578737762	0.01112507600038907	0.003905824712441755
-0.03803544316135245	-0.08135580792032733	0.01967177908751787	0.06809450167342147
-0.02817807009248594	-0.04438558522204034	0.01053793675945631	0.07479200111234471
-0.02051775633630152	-0.08518236568105035	0.001861570592864515	-0.03773153747666216
0.0006983990390352626	-0.08752385808336928	0.01831741294486908	-0.124790716930221
0.01032202250324184	-0.09523802469632216	0.02356728891791396	-0.07329604303848841
-0.02192907822662032	-0.08920796133766513	-0.002587417136704494	-0.02728576289792645
-0.07213130172424267	-0.05591290413107743	-0.02546569546253748	-0.03206650958915656
-0.0457534779455855	-0.009094517870534937	-0.05476990719599257	-0.05133710453715792
-0.01993075459926691	0.02976386515049649	-0.09370853549163971	0.0002479039467346206
-0.007031683155039429	0.005082707949970341	-0.05596424638564151	0.02696489321425385
0.01202418248349102	0.02038416465313892	0.01174878642356232	0.05933551149029231
0.005251337349156446	0.05006361589972898	0.02721255027402537	0.008803269127249696
0.01281833526745072	0.07224679003845956	0.03685210327834225	0.002803907071043028
0.04333230469043051	0.1702646601661779	0.02727950234764522	0.002930668150918549
0.05108065066089414	0.1501571289712689	0.06269604185731895	0.05519881364439091
0.0371220380668299	0.07855412213918453	0.07819236755339527	0.1268869193731429
0.004111157139227414	-0.03166529645009454	0.06064186216370393	0.1251124482726317
-0.01530511150233991	-0.05749621970341511	0.02993081525080678	0.0545845313533758
0.02043498515484484	-0.0241608206006407	-0.006245971526017005	-0.0109816613929748
0.04777632883009016	-0.01706792739775288	-0.01590769451613581	-0.03183183326558758
0.04596231854353266	-0.02400220468149302	-0.0382195740152714	-0.03988495657521987
-0.0008635158125480018	-0.02044755476928942	-0.04288742964372113	-0.0541655451667146
-0.06205567299890852	-0.03976895121642671	-0.03082832380296375	-0.01553196430289628
-0.05171516351145301	-0.08594961428864037	-0.002057528826557934	0.003800272461791144
-0.0353537451044048	-0.07142065488760471	0.009821962571937281	0.01032423816044589
0.01617517129456364	-0.06229923143216448	0.02285460258429503	0.03078276883708488
0.04586300172720403	-0.01651248894778353	7.286959938394373e-05	0.01007778960276982
0.06670500585771966	0.008956793941041978	-0.004811515993562701	0.03531482047994539
0.002941558297791183	-0.03928913104375217	-0.02773093585436688	0.08193258704052672
-0.02587803459161776	0.02176392364351023	-0.01064475283167872	0.09344263478749523
-0.001831592253879284	0.04827793242318779	-0.0200081974757187	0.03576383825626209
0.002772024049793584	0.07513186603454819	-0.02181308649624483	-0.02015114137036897
-0.005646765298345912	0.06654370956840104	-0.02370150758786524	-0.1353553323817313
0.005633476991502477	0.06357115180648303	-0.0228755000466923	-0.0119073513682549
-0.00328168555801959	0.038532452719375	-0.02681580029229644	0.04334589020016371
0.004536190580988306	0.1344469888927544	-0.02796075018643224	0.01727027594499826
-0.001574290454421211	0.1383219062379988	-0.009561937133947974	-0.02467523230152685
-0.005414538977187961	0.143977818053946	0.002933011652962063	-0.04516354829194548
-0.009350118982823214	0.08412194088639234	0.03592513880727874	-0.03105756601338334
-0.009302841599903213	0.03394709552201704	0.02630052376970772	-0.01322508864100736
0.01343870562495558	0.01405987535432659	-0.01390439537095638	-0.03916325177964117
0.01795020250474772	-0.103422425789834	-0.03454001745389717	-0.05387970555722849
0.02283954766292653	-0.1150982455345891	-0.02908207882141262	-0.03130001323784502
0.01332873088721618	-0.065706290523237	-0.006189410588191036	-0.01399443743841859
0.01266853085107521	-0.05483195716408006	0.03779170788997743	0.00642615311478229
0.0160384143052545	-0.02883049227551647	0.06424678931659256	0.002314224062630591
0.01857747519641642	0.005423601085549493	0.09835197742937028	0.001859061210506153
0.01411757725265567	0.01244315200438301	0.08220511910025344	-0.008561301961950925
0.0197639402925622	0.1033217433803458	0.04822953013387621	0.002555938275970194
0.002924484876931837	0.1043545522746132	0.02506468572782141	0.006778111085756676
-0.003097821407738876	0.09805795741299785	-0.02523470013576435	-0.001117591713662085
-0.02345594435211671	0.1021239342950766	-0.0312041961860027	0.02143994355599161
-0.00569486946472658	0.09627481754825787	-0.004447745673752415	0.05693773513856929
0.04513450159749499	-0.1993030146778895	0.01465356351070921	0.0566708598062083
0.02624382718702833	-0.1226437556629246	0.01834518675879372	0.08638666539736346
-0.008044295917974943	-0.103896956559122	0.009605667278460132	0.09344469302432662
-0.02875008983850209	-0.1312835551654487	-0.007763371282647313	0.08376058485210985
-0.05070101091335231	-0.1052496445096492	-0.02540331598485106	0.06576563822393358
-0.02812026008071531	-0.06714462112117933	-0.02899774580752351	0.02321417215391964
-0.02845823994814609	-0.04098893738404302	-0.03842426945954665	-0.07066583879511913
-0.01742728995316807	-0.02888514019754015	-0.02273187266509811	-0.0977437201948453
-0.006794293568738557	-0.01357236982911157	-0.02238626733060906	-0.09622435607940066
-0.009348792710734308	-0.02328627397959515	-0.00485579837583631	-0.0692656535842469
-0.01709572600610298	-0.03009810001272173	0.009881000852672822	-0.04210924780313276
-0.01127540194037955	-0.05575603273276382	0.0002789090517568855	-0.009973208646048063
-0.01496899753545704	-0.08964033518254301	0.002253388120722851	0.01872182339481784
-0.002938928831276852	-0.1322340848342772	0.01616142113900361	0.028320084335169
-0.004545540045170588	-0.1751683374289471	0.01561720341035279	0.01869621253369901
0.0075559998084048	-0.1417002660609997	-0.01346144949230517	-0.03478365926558499
0.0295730414021095	0.02546637814984202	-0.02960805786671038	-0.07368528658072722
0.04042250103750898	0.08146296276573557	-0.04765701379307565	-0.07427691004577761
0.03445258683983523	0.1411576432689179	-0.02928019744697377	-0.004857396221655921
0.03877851177799328	0.236948957850839	-0.03879129046593291	0.01913187642654708
0.02924707166151855	0.2656312548032173	-0.02231820462429914	0.02605373783398396
0.02632242768068929	0.21061673736121	-0.00472891393643882	0.02688774089175462
0.01138056684220234	0.1657057434995487	0.01276351759847578	0.01019774918127881
0.001362719367757359	0.1470867233051208	0.01182739654048774	-0.0029415208184888
-0.02533888249634304	0.04839917155565113	-0.005797292704876607	0.04197146009010702
-0.04063667308057228	-0.02304028624944139	0.006308033411227618	0.05053388158591451
-0.02818411882404262	-0.09783094315905591	0.01101655515701244	0.05174418850003105
-0.01763112018808198	-0.1899261681831798	0.01459320883605949	0.05862026978664348
-0.007754801321095765	-0.2122838177225966	0.02434090452331481	-0.007162704690944306
-0.03695842623265531	-0.1758518774569025	0.02744475160738855	-0.04157481398748474
-0.05068181275880099	-0.1285917165683067	0.03300167735235944	-0.07285271864772715
-0.03693840432617931	-0.09793301128255648	0.0366983559359637	-0.1116664296174309
-0.02416370215091733	-0.07160617006370824	-0.003015572003269156	-0.06515627337233972
-0.01177049794806521	-0.04327548323197946	-0.01117027323348014	-0.04906206175193471
-0.01801140566071954	-0.001295103777443124	-0.02704930929905124	-0.04730368619559369
-0.004232649780252487	0.03740344661193601	-0.03786776342590783	-0.03415417102615746
0.02279197590580348	0.09390152301939113	-0.04636051840737125	-0.01479301718488506
0.05076317991116421	0.07622539528575414	-0.02971141653041999	0.0292703008554559
0.05494601588536065	0.05523835484689696	0.01444288233792685	0.08127145388216586
0.03846271190479898	0.007895390569194019	0.04031535226845365	0.1142296400075264
-8.98582473913348e-05	0.03722845913806463	0.03716842146135401	0.1031402895056225
-0.03013350493418995	0.06153262337363997	0.01793682535843974	0.02523312813388146
-0.01100663287117068	0.108865921594129	0.0008689249397460367	-0.01111030531116123
-0.04155106199250391	0.07789245341551536	0.008765450805567149	-0.06172608032313362
-0.07708821235580376	0.1078766514778826	0.006236726699748117	-0.09172851650003382
-0.07915678615255738	0.1309313575699598	0.003269265667049744	-0.0656396869406253
-0.03502283340013904	0.08809953034793715	0.002926651549561488	-0.06806509779173003
0.007771008320763426	0.01426602767507929	-0.001977614669347001	-0.04333379506602424
-0.03303123342055077	-0.02570849986809833	0.03276287844697558	-0.009876306695722632
-0.01920384088316289	-0.07266310809316387	0.0476457342878421	0.003421578543694742
-0.009150550488871192	-0.08315465518609316	0.03471752755688563	-0.0007556632421586982
-0.004973632373574898	-0.06488733415890997	0.004530032883601253	0.001457552875745438
0.00179506981512566	-0.04183039471364515	-0.01930427469044129	0.0162833058661125
0.02978945699977553	0.02778625784030227	-0.04658558131472846	0.01598997102360408
0.05356516474134945	0.06070626173386003	-0.08659779407398009	0.02757615261989829
0.04621860764998809	0.1089583341750877	-0.06586569472068213	0.03204523942955703
0.04228008985970921	0.1380092784030112	-0.02647214764807955	0.06562439970712246
0.06031646311682083	0.1183722644390484	0.01063120536060095	0.05943935577849419
0.0498844508934194	-0.01248996397159693	0.0143093794481622	0.04758619183211438
0.03413011119999622	-0.1101855746121385	0.025241365519377	0.03628723708984006
0.0218163647199729	-0.1656625487793635	0.04015749208968288	0.06076322814738105
0.001391818154776004	-0.1918330670352308	0.03131952275471637	0.1337165188307916
-0.03415268391718473	-0.1872226489072133	0.01814662253118779	0.1521517918941601
-0.02332337020223038	-0.1350663081896133	0.008553992200401022	0.1645773766068793
-0.0121103133038842	-0.07243123054348222	0.001559832364250683	0.01214334855804643
-0.02810831357442949	-0.01426606296734821	-0.009231307520304984	-0.1283150715243329
-0.01985976914038794	0.05588065954071893	-0.0298649482383172	-0.1955845822193103
0.000530862529965205	0.09469823012428787	-0.03954367350333298	-0.2233448807070018
0.006753300802260289	0.1067618659280948	-0.03134527502105437	-0.1590658931809234
0.01274010785522789	0.04675905113526284	0.01983774945977241	-0.03436167339927314
0.01632458450177173	0.009739240039995368	0.02665810171820288	0.05597451827690429
-0.004942011223645531	-0.005147598252623675	0.01528551022336848	0.06711582215103343
0.0001235837190544168	0.0317678999433583	0.01568408858238021	0.02183708453468036
0.01688125706835552	0.0284825315165413	-0.003783307510015163	-0.09815028381563046
0.0207689751099436	0.01754471652885696	0.01046497112749934	-0.1056617835045369
0.02055346960297814	0.03936324234654062	-0.006983374618559021	-0.07794426032930835
0.005726886204005506	0.0120046824287963	-0.008236383184313675	-0.0145365698589021
0.01860646547559709	0.08410170469115161	0.0009037444635191833	0.01768293788794017
0.01034253233533379	0.1093814004975397	0.03580152217851028	0.04355362684452376
-0.02207446689195683	0.02299830460801467	0.01168657543690382	0.04981750764262656
-0.01225042773919131	-0.02440584667321902	0.001082648798820383	0.03626384442979751
0.004126298335831406	-0.07929063883111559	0.00303425347480511	0.04285586199675508
0.02042427806414087	-0.1528512124401493	0.000441195653153701	0.02008491806888302
0.02167068498313557	-0.1827110223282608	-0.01722533076442655	0.04117062326464789
0.02347143715811774	-0.07710076154246526	-0.0305317669944274	0.04864939510928096
0.03386702629825242	0.07976506049501376	-0.02262435135584718	0.05654833727861871
0.0100278557163335	0.05750960430351996	-0.01595569291590227	0.03120220831259474
0.00340850841944763	0.003887873282982327	-0.00507528023590321	-0.01538961482121357
0.009085583049390599	0.002893082657130387	-0.002794002423095261	-0.04333596467004579
0.02031573694060071	0.007404854193229587	-3.791604924469047e-05	-0.04149844392651477
0.009538438195488001	-0.00765601062362827	0.007637096860210051	-0.02830467964186765
-0.01421609208900991	-0.01456885472422428	0.004558506506571655	0.03389767179848154
0.001062524674804857	0.04899225648824002	-0.008744373476752254	0.05551031454059669
-0.009297075010798057	0.08874236016564019	-0.01021171605033888	0.04426811930718874
-0.03041511606805684	0.07249361324107892	0.01831389114929956	0.07070358787344964
-0.03383637364196716	0.03165082533227524	0.02396380955393084	0.02209987300508388
-0.01853449238412164	0.01576806143007642	-0.0005303971487938339	-0.01649494992163683
0.03681887943420429	-0.02245004240644722	0.01312032116862457	-0.0195977839606307
0.08082217668323666	-0.08574549389292778	0.01850456540297005	-0.03881244034588395
0.0785095757668209	-0.11926430648575	0.0002080049884427176	-0.02056892497158786
