-0.016221801558428	0.02090177387129135	-0.06061395738161697	0.01659411733405084
-0.0223307412321331	0.02107734165920686	-0.02943626179009305	0.01779302410926277
-0.006286129665377714	-0.002385530666099987	-0.03197683649188955	0.0169507734840315
0.00415084735406462	-0.01151195795359145	-0.003200994514383397	0.01633434082636166
0.00925837646580834	-0.00603987846318568	0.0732784605171254	0.03015099328917872
0.02012260506213298	0.004745865220382582	0.03365498347019757	0.04331710838916775
0.01985530111422307	-0.001805977032770015	0.0204395797757026	0.02323860177579314
0.021740936697578	-0.01026230291136595	0.03727070132679953	0.01199022482624095
0.02839176640264584	-0.03624259311499412	0.07216861409303109	0.01464867250589214
0.0286592329162205	-0.05189293259479022	0.05408046415474398	0.0118152268037936
0.01250679149426067	-0.05551827403704194	-0.05762718188153749	0.03993639962517018
0.01430690214944622	-0.05318403313507045	-0.109553068336137	0.1061724426455115
0.009451193455082963	-0.04204716016303452	-0.09655271273571878	0.08468457681545352
0.01172638694404148	-0.01635233540921056	-0.04098545899770455	0.01294805967254333
0.01068530557217328	-0.01651635334091778	-0.03755925615851634	-0.05025703662930577
0.002433972272342056	-0.02244768499887715	-0.004238292227626577	-0.05893673418809207
0.00267442403598283	-0.02050207399371793	-0.04185769665549662	-0.08236134709744566
0.001191079975558109	-0.01469357461174035	-0.01812753069626537	-0.0417875380769839
0.004451435866758593	-0.02012134810875474	-0.02327725114077731	-0.06353069339526796
0.003276661595334775	-0.01333701097666379	0.006587487991038398	-0.06852688682767158
0.01336789793914405	-0.004111022721951491	0.05017872195490986	-0.06045668999894374
0.01889061296745274	0.002873974454674159	0.04285859993978942	-0.02250587366532409
0.01937769012995292	0.01822039028063914	0.02317128922213279	0.02694180444333582
0.01379023002555585	0.01977904926064977	0.01267311268553035	-0.008854573779405309
0.005660085135631766	0.03468092957838575	0.05054128904257819	-0.05443388210377392
0.006599953679487315	0.05429129543776629	0.06058314209974624	-0.02287109213946549
-0.00819633868575634	0.06185741222214017	0.01699775508475069	-0.01856635617143293
-0.04114404123872192	0.01714038208879818	-0.004832566091134024	-0.01655412374208377
-0.04418973951102571	-0.01066271268635476	0.009270053271741716	0.006256350678339467
-0.02367401281562007	-0.003663951264333367	0.09786270953828725	0.07782490908847048
-0.008402665521309281	-0.0003844904570525709	0.09780182487934039	0.073589132904649
0.01558945287604022	0.02115883362400496	0.05010660230589335	0.04925768105496538
0.02776158538470104	0.02334472759013874	0.008522857045698816	0.1136486006155265
0.02222820481538947	0.00318692965288667	-0.006679545811560524	0.08837487363994778
0.0214357014564808	-0.003386891871733745	-0.01990915571524585	-0.01013250696614189
0.02746461366385105	-0.0004311520064555297	-0.01221162422773883	0.03792617678534241
0.02974007932866705	0.001155573847146087	0.03606765523610118	0.08230653038485139
0.02372451456128062	-0.005241785585180069	0.02939737957117199	-0.005376645654867934
0.01977624906543998	-0.01278954616270435	-0.05528919597663164	-0.1213602878067492
0.0147008662979996	-0.006290171878839015	-0.09769969292698671	-0.2047025617032543
0.005272832447578002	-0.002832543349592341	-0.08412122632948967	-0.1209125695599208
0.000424300804855554	5.002471902244648e-06	-0.02649190550859706	-0.02779207015048803
-8.250747650507111e-05	-0.008213104172158659	0.003155694518959121	-0.03047035026881846
-0.01569750329812717	-0.02584570725553057	0.08105716663940679	-0.03806410133019544
-0.03716304127231843	-0.03329949533625863	0.09724514043126822	-0.002294739448556335
-0.02952560084714213	-0.02510162815754938	0.1153445115497034	0.03418009913125637
-0.02460349433349598	-0.0233901369270654	0.04604716057242061	0.03785828168155642
-0.02429897044877866	-0.02589118073890995	0.04384291918072279	0.02922266331938717
-0.02089617762428321	-0.02395630869453491	-0.07167271816711665	0.05623754175126625
-0.02111686522487366	-0.0193734710107273	-0.06858143561699022	0.09387377459165783
-0.0243678051991813	-0.005442744202419285	-0.0820953969601427	0.06436484326457716
-0.03431978257917967	-0.002651266405248956	-0.06780088350321806	0.06376559988137796
-0.03442128484504939	0.001749942954624144	-0.05188416897901592	0.07970959084114593
0.005012359371855899	0.0277767326300835	-0.03002188799487291	0.005775240934987953
0.02409596714457403	0.04675451002293797	-0.0328382912197638	0.02870661771001213
0.02675933657089167	0.03214048410721886	0.001834342913458984	0.04435606383534258
0.02556942430690819	0.04479704578396044	0.05537654676079531	0.004092576925670168
0.02205789150499796	0.04029761495997428	0.07365780901657586	-0.0207323915357644
0.01904290051275983	0.02581264127459338	0.008945440584441128	-0.1252800717518477
0.008758593211629357	-0.003059796293378439	0.002677987651610469	-0.1863391344318614
-0.007485632624541902	-0.02844345344547329	0.005684184212540537	-0.1137067422423438
-0.01930834156775091	-0.03497955325579982	0.05697809051236674	0.02273055478442027
-0.01237283988764754	-0.009718642768216079	0.06463821379420701	0.02905055962125517
-0.003932852792621864	0.004960624916303945	0.04895284718463577	-0.00462199714294963
-0.002073011688827475	-0.01217444673660651	0.03566060837764796	-0.00318845105380623
0.002804362097092976	-0.01622329883623917	-0.0360352640925626	-0.0393364125091287
0.01754698666980915	0.008362976234101682	-0.07602509099888131	-0.01624415300677579
0.01677625748138896	0.0219662383783289	-0.07303628367778536	0.01508298931936678
0.01069558803207536	0.02539647292232237	-0.04693064467451543	0.003265728832357517
0.01156307035898032	0.03710563379176571	-0.05179063667495979	-0.01096021670411942
0.002986028816469584	0.03117084582441297	-0.009405358195382876	-0.02276254982910499
-0.02139733201769407	0.02714835580546735	0.03585516983612393	-0.001808661416996148
-0.004970915274364736	0.04040438563913019	0.05152463575647225	0.00791781762871599
0.0107053700683935	0.01849388316490663	0.06585508045661767	0.06798511957771722
0.013999910900872	0.005570386548252956	0.01058285918222065	0.1827850297427096
0.01241989781970305	-0.005825122973348974	-0.05172940256198358	0.09240162782456848
0.04098392938819533	-0.01764639200140426	-0.01788109336790657	-0.03328024428769063
0.03978277316780394	-0.003755986066513787	0.04959092654173682	-0.08294490305241578
0.006445204836041403	0.0154967154484295	0.046802782499748	-0.06582035757085912
-0.005309443587832201	0.01021887651621293	0.02783568403422576	-0.040823224233509
0.001084455262178119	0.01915525027811015	0.01808635446521238	0.06838269796655434
0.003665799789055782	0.01425963864026191	-0.003110393904009683	0.1598036502237267
-0.01503343345390921	0.00566643928395614	-0.02343175707025072	0.07972409863330372
-0.1032014148089803	-0.002475317310620446	-0.04538338643331301	0.01196930240574974
-0.1179610838731835	-0.02207477828483084	0.009445493403051099	-0.002198278394786553
-0.08728811891254491	-0.02158541707411909	-0.0021438810886633	-0.04377969467687202
-0.07073890669665286	-0.02255670068883025	-0.06686071480568573	-0.05412427355440204
-0.06512302539132138	-0.02336716145983995	-0.1430577226415052	-0.002320745395286046
-0.03401556042454811	-0.02390455472839614	-0.09823794635775131	0.08496540458481505
-0.004706443761428472	-0.01790093140056165	-0.0441793500711812	0.05411218429988345
0.02521049346822781	0.001064711253925868	0.006425803910734305	-0.002138266666397171
0.02627236412201802	0.008852153447599022	0.04341418803121214	-0.04784227329732034
0.0112892524888565	-0.004566389514106007	0.177963115040087	-0.144052956333527
0.007764991043606581	-0.02324232412113711	0.1192219257344895	-0.1153801261156846
0.009115919270387372	-0.011105997296681	0.01467087472729637	-0.04202310744794541
0.001810425556919673	-0.02000872566946383	0.0277927233810971	-0.02895469244124616
0.006254252155345664	-0.02254055849887516	0.0318064091342934	-0.01805554010694072
0.009262018966721668	-0.01640949585926475	-0.006508644779702761	0.006721539300177968
0.002916197404089863	-0.0358398926124768	-0.03416788744629697	-0.00134090212531187
0.01167233050819631	-0.0307985131180581	-0.09183252990748537	-0.00402581310626673
0.02157020090339469	-0.03980156070753028	-0.1072338910073857	0.003522729272643217
0.03844529512349568	-0.02744014221747817	-0.06022161239884827	0.01683764894340822
0.04115762677367298	-0.02087236432536018	-0.01771611269703187	0.01378617071740985
0.06150020221459451	0.01383115060222135	-0.01746175643953762	0.02268122976094212
0.07318148386145354	0.04945810001268742	-0.02706341336866412	0.02937810962798995
0.04986382925684292	0.05030085049151929	-0.004392820147361498	0.084676743994854
0.02983544035546259	0.0198495028772395	-0.009936572286714702	0.1025420543447988
0.03608772177439266	0.007147560701691366	-0.02539349423689281	0.06270219142402672
0.02660113108292932	0.03074551083201658	-0.01231815981879526	0.01846101576623118
0.02370381133933752	0.05051036751268472	0.03085954295211958	-0.08293446086148332
0.02173105303358238	0.0501104464677091	0.06643262623502438	-0.1061476259386508
0.02094684502735964	0.03985135694799975	-0.01301667434228719	-0.04802772381088889
0.01211708857464828	0.02169273333113702	0.04737069045572666	-0.04376791522350758
0.005678620784655927	-0.009623571146076444	0.05073868824609699	-0.05664896536689547
-0.008519710773507695	-0.03406819288945353	-0.01110823622325056	-0.07996195427820031
-0.007108244687779226	-0.04709189970238698	-0.008154551539504685	-0.06065230956433835
-0.007541745519379848	-0.0436244454664374	0.03126796511168221	-0.03295884975172128
0.0005364883920237957	-0.03488918811140828	0.01590956524437291	0.03721531935701192
0.004850404313375615	-0.01836138384805297	-0.03237793833663676	0.04166094540613161
-0.005806399095452075	-0.02614096516782435	-0.06024667820744047	-0.02700697879231179
-0.009232634697462565	-0.02183445814838244	-0.05666703955876894	-0.02662465873661755
-0.01544040530419862	-0.02101331642040156	-0.02976040682658947	0.02354714625368871
-0.02050932291887735	-0.02097921761749037	-0.01408837819916009	0.04423626006226793
-0.02042193312082345	-0.02478836419206407	-0.02661572940869872	0.1012619708388695
-0.01724638364448543	-0.01667918289509015	0.03292507538121919	0.1771267874005794
-0.006269492458501015	0.008581092032110146	0.07261995870354777	0.1452055626703321
-0.0009745308813925386	0.0003795457139095691	0.07456192672256375	0.1187512284425913
-0.005218996309271274	-0.007203918347399987	0.04996293839727629	0.06798144397188238
0.001284631577094972	-0.03160341006364517	-0.04426234214235946	-0.03320844389596237
0.009363778899542301	-0.01750637955966683	-0.04329258087842117	-0.05813473777573381
0.009779392890543385	-0.001580214866175941	-0.02045211270550488	-0.1011312688369001
0.003337406800113968	-0.02688515634428401	0.02850322476415775	-0.1712618726449144
-0.00322107644723508	-0.01272833942274503	0.002841289859222585	-0.1733550900173794
0.01748115673004063	0.02054688656464136	0.06735797202806368	-0.07660574230090303
0.01686367409678945	0.02756262138723316	0.07040649984554158	-0.04025397297836026
0.01083005150348976	0.03875659392659787	0.02915303940042484	-0.02047582147443761
0.01406571291833227	0.08677076670771934	0.04713605070584432	-0.01979818497899872
0.005746370165412821	0.139003716346058	0.07858695109220801	0.04129075163896753
-0.01827997228588797	0.1565300363066643	0.0633183864498508	0.05753031845208355
-0.02711804394019709	0.1280500876869144	0.08092532878910368	0.008743179927979929
-0.03990453999187897	0.0393581431235538	-0.005748377954368512	0.008226588249855896
-0.03328968591118561	0.002188580832070039	-0.04078078865595838	0.01388482611092589
-0.0356683484312357	-0.01158336991951148	-0.05047977167966557	0.007726377085114099
-0.006552608326397769	-0.02394147976218408	-0.0812021318813313	0.001213980037839854
0.0006300484927448725	-0.02554819829765771	-0.06659763496426169	0.01547914441404998
-0.002977541856909851	-0.02905126064475454	-0.06691345527591473	-0.003621057710598268
0.005379540433257795	-0.02883559067377756	-0.1231710945486409	0.03965012777917449
0.01065846661917516	-0.02276551551065177	-0.104387959037084	0.137985867776804
0.01239932171496765	-0.03181296647127987	-0.09270693726779607	0.1001195470054078
0.001757425717332726	-0.03482118889670916	0.02174553767150257	0.09240036586965998
-0.003201921617452207	-0.01750913707166779	0.1373879748301225	0.102459220471933
-0.009034024281351289	-0.0192713546247527	0.1650378402049909	0.01294031660194745
-0.07099132069993727	-0.03392919713843116	0.08565272716591814	-0.05278616772665874
-0.08269890572463574	-0.03645301628562622	0.024745070377142	-0.09099788811216969
-0.02856623621465664	-0.02875253560595177	0.009095452847840135	-0.1555865063483585
-0.01831217720850675	-0.008663359536243219	0.01970108427861766	-0.09214317188039393
-0.0226206599935552	-0.01083269400375366	0.01065537233376769	-0.03473039486350828
-0.04323612628040897	-0.04084665917606663	-0.03111507735741191	0.003503222841720981
-0.03432122285611427	-0.05996130760052295	-0.03465019086815558	-0.04824102657670486
-0.004549154406791852	-0.05794286961675398	-0.05287993430750051	-0.08893509517711246
0.0160528844430037	-0.03211691936941977	-0.02682152952580052	-0.07827829092452397
0.01604892141329226	-0.02496351101424446	-0.01884327587544711	-0.003229828789146254
0.007091204936763614	-0.03323990149072471	0.02354242336660008	0.05732572233717924
-0.003627988020263516	-0.02137017789375099	0.02994719282701914	0.1996736964455658
0.003366833759678457	0.009698718692854727	0.05788252817862492	0.2470805077370164
0.03949083408553355	0.0288723694164926	0.008791010233690739	0.09072987256576538
0.03558400540118883	0.02980692610534704	-0.1277545008498626	0.01345820179755763
0.01289821664038422	0.0315222826618508	-0.1081360616533223	-0.08266991785189755
-0.03070025039114302	0.02610237019981154	-0.04484846551844331	-0.2405154063821948
-0.03155400078127212	-0.007094533095839079	-0.0004765141648312484	-0.2595059056518497
-0.01001778745793793	-0.01269346364451174	0.04135504195567941	-0.06368017421301213
-0.005748176358198356	-0.006176358158335882	0.02611000226200021	0.03240067466125231
-0.01552569889339336	0.00561859032440983	0.01975862271656326	0.06832707189284018
0.009925509030189966	0.01732950638736922	-0.003537143110211197	0.07428537140134783
0.02329486191444768	0.03070495158294684	0.0375995819831004	0.02776912015171728
0.01054207250907944	0.01084989978326751	0.0280036179442089	0.004078963940434441
-0.007960840229190495	0.002481564048922918	-0.0257004701239649	0.01327172934241344
-0.002640257967038864	0.005792924553592633	-0.0453503319197383	0.01862631904870439
0.00920551955048847	0.005737620940719324	-0.06393289633049161	0.01361843832365266
0.02324830560087393	0.004326723502291254	-0.0738674752390443	-0.01590914685995436
0.03457019906444025	0.006746035761933164	-0.06516826403680803	0.006341226065932961
0.03141813635398843	0.003926761997001591	0.01633406128835697	0.02333920114400519
0.0353287509601556	-0.002324381588666556	0.08572269406904857	0.03300511004022528
0.03831409280366806	-0.01817846590940324	0.04264088028118645	-0.04580100419209029
0.04101957867766109	-0.001825959887271357	-0.03871567842996045	-0.1133077415574621
0.03509386111738788	0.01397124428119184	-0.06272875944924988	-0.08387268389965889
0.02826837667780926	0.010343647606014	-0.01887387785181672	0.006755939101258944
0.0156771769582277	-0.0001771429569907553	-0.01018576154828935	0.09045664793128547
-0.001317085991660255	0.01306330092751113	-0.06727239445637262	0.0721345553867891
0.003246713055569455	0.02861070234436969	-0.02746935110317822	0.02054529978414967
0.003212515955713236	0.01446289384713739	0.1038090752905005	0.03605681453677338
-0.005032668448131872	0.01810817336738844	0.1310756432859592	0.01659067215669947
-0.003492234650366814	0.02719018752115631	0.09861245776763004	0.01450108300065526
0.002454940483963968	0.03934585778271115	0.03604924064717758	0.02256399002660527
0.005153360489440997	0.04268823219986334	-0.03110215091197526	0.06423820961446479
-0.002718027208988024	0.02955879145231873	-0.0009101998661496969	0.08017493179347389
-0.0003818882369156884	0.05226217935566708	0.05798462774781681	0.06969813438761066
0.01011594428224147	0.05636131097696415	0.06393403957946962	0.02550384025423476
0.01522057567095701	0.05078258411281181	0.02533567537696699	-0.01640004538402116
0.0170670906231769	0.03133575062090916	-0.07102664707272052	-0.06920109684993413
0.01508838789231674	0.01284199871863319	-0.01708601755891456	-0.07372697641356546
0.01495286090322316	-0.003540891372650868	0.01746622843896266	-0.0596909633195731
0.01602218552746223	-0.01075467972011287	-0.01619106473571946	-0.03840423713771535
0.009082171723353872	-0.02251293266739294	-0.02317197431991507	-0.00676657144537034
0.01159000709464774	-0.02989007625132908	-0.002580005843375438	0.02976561982728758
0.0001476390945845012	-0.03419114460264974	0.06524560077654655	0.04964395669281033
-0.005922043403197063	-0.03564640835248812	0.03675896768974125	0.02270942351428858
-0.00495795916272599	-0.04797923044824181	-0.001989754626901469	-0.002722766781062487
-0.01444761949721961	-0.04901106013529315	-0.001162822369036974	-0.01465064615501629
-0.0260129032403881	-0.06443436312086573	-0.03458009076011848	-0.01349088262511853
-0.01586885401473606	-0.04873395037516636	-0.04188339528324101	-0.04283806210853869
-0.006570758057240016	-0.02202197251890933	-0.003891024833195834	-0.02800053715254377
-0.007666727861499391	-0.005131471516861457	0.004571941499908515	0.07125742880490518
-0.02213212126997675	0.01310005705853412	0.01859456622355102	0.08455999196215878
-0.01033491726554877	0.00787811041971934	-0.02536178092556927	0.06973520195159759
0.00648942593998773	-0.01558714460520252	0.02726971058264068	0.03139212880916199
0.009327569418688203	-0.02185196282358135	0.07902672860716656	-0.04226134787491565
0.006248375012838864	-0.02361468511299175	0.002731176044276615	-0.07220466785193271
0.008901985253708819	-0.009557492005675228	-0.04628021175644891	-0.06876285100811198
0.004730500807266453	0.004504070186530689	-0.02439730199494863	-0.05659484957902505
-0.001654800969710735	0.009826013165409394	-0.02620444989389144	-0.05666813302977922
-0.0183161447121292	-0.004791813431392582	-0.1057948105898928	-0.04329596848997634
-0.01716994610923854	-0.01228908355606659	-0.06156228718739953	0.05779656109800199
-0.03326480159139276	-0.02762080815970474	-0.01459728782679682	0.08385788939311818
-0.03053215394350051	-0.02261461651029016	0.01274593467251925	0.07352348745452753
-0.02433322273239014	-0.01638228111617291	0.04938130270743993	0.05747088904649617
-0.05085911963842784	-0.02794628165329812	0.06699772537459661	-0.02212771575258803
-0.03781981663450431	-0.006167480150905493	0.03470781534027106	-0.07599969363228025
-0.02252361247360307	0.01943419117702991	-0.03397582240106183	-0.1226107815820326
-0.01173192246821848	0.03061978243001111	-0.05163817137495124	-0.1209532584013089
-0.002561982455583428	0.02723344906046885	0.01227658602901371	-0.03147618518667089
0.02201193295564569	0.03379333893379632	0.02567183422658454	0.09478805537351728
0.008765497661774591	0.01075329159811568	0.04864958802597085	0.08001487399739945
0.01860359201049825	0.0109587781626109	0.05324694539903847	0.02526808027971064
0.0252363018182451	0.008429504731884214	0.01146271132569281	-0.06811299775944987
0.0272286166453322	0.0280854463356776	-0.002691590306920156	-0.133205772021372
0.02813705423380249	0.02404781207883232	-0.002766268431119464	-0.1110015141472337
0.03081394767638915	0.01730501139414109	0.01082669418331247	0.006413398977987664
0.0264152247333455	0.0004021718999818357	-0.002416640765713953	0.01712876315042402
0.001780077285660351	-0.02491146454043387	-0.0425402713375503	0.02084139057150238
-0.02688032629567198	-0.0317000994003438	-0.04301352541880252	0.02852421871539172
-0.02747523688528511	-0.03316805920578721	-0.04160263943534547	0.01351482654618895
-0.02625216726483077	-0.02292069190166045	-0.0337108840230302	-0.02101856678340201
-0.02809104986099224	-0.01135698018932817	-0.01306869442038491	0.01562269466677555
-0.04062052490604628	-0.02349237237800498	-0.002565112893007688	0.02672538688366361
-0.03614114303157703	-0.02880519291680185	0.008154240540775209	0.04323229660803387
-0.02787482138866291	0.003506378443495824	0.02901791179125292	0.01213039875266151
-0.003783584232561123	0.01522483092452321	-0.004812934929729393	-0.006487847594800787
0.0131017857500984	-0.02306196649265221	-0.01988015121237204	-0.03676947190649001
0.0109109637904805	-0.01917965063730135	0.03601540325929989	-0.06205968433558656
0.005335461137016141	-0.01127833854329926	-0.032232223712948	-0.03272953951410366
0.002493867279267457	-0.001249844969802874	0.008283288056232175	0.08442849358482103
0.01289380183937561	0.04198010938712492	-0.01415455206886237	0.09797788058282292
0.01230557110907774	0.05769762352391691	-0.001439141905618793	0.03568399103380089
-0.001157544758238587	0.04644206244396546	0.02044179069244825	-0.006589468332282609
-0.01432257059650881	0.04019842950764081	-0.02386065073380329	-0.07618702094668758
-0.009419892432879575	0.03551022683233373	0.0005275119203365288	-0.02431789830900733
-0.02927388835709158	0.0123102525222597	0.01087962933345799	0.07338832238641861
-0.04570641123707739	-0.01659389289747386	0.01614512525192069	0.0748678156473524
-0.02492461555799006	-0.01657939932734582	0.01427496366867232	0.1339287557494369
0.01581869561378004	-0.006130566062608979	0.01838111414740946	0.0971144398150614
0.04327627769446934	-0.0130997049046277	0.01098370255087799	-0.002418557020174749
0.06457253089817071	0.007632386089007753	0.001410586026367673	-0.04765887644675011
0.06358264708758288	0.03457563764401825	-0.008474016815064562	-0.08771370973447445
0.05513060461904556	0.06035280170471043	-0.05571843339578766	-0.09304748297040417
0.02217394260544648	0.03996256013378333	-0.06073886693753118	-0.004446360868818494
0.0112389490246253	0.022657009481894	-0.009801300187508239	0.1385017932318931
0.01477298988244177	0.00458196719636473	0.04734087849670791	0.1338544900410516
0.01152809075336974	-0.0111852798671306	0.0612630149180461	0.06437733278739682
-0.02825302709155694	-0.01495317086086493	-0.01224076582496026	0.03117411516674628
-0.02694379175930138	-0.01813180621423686	-0.04111079335366682	0.002593367535651753
-0.02786580726857936	-0.01114939345499153	0.0229986961609424	-0.04460003881697904
-0.02581094417677932	-0.008647380614484718	0.04693406533380241	-0.1022238141646108
-0.02874788417695688	-0.01878424564180931	-0.004030528567712533	-0.09802818385636056
-0.02450873405507127	-0.007264811718376656	-0.03248868705087082	-0.04996908331387493
-0.01659646921877296	-0.01827760410191898	-0.07263284018804693	-0.05637833027407806
-0.01597453221229422	-0.02275451503936479	-0.006093035018154504	-0.05210800241048895
-0.01269455882935118	-0.01510670352161218	0.0169194439003891	-0.02343089931165012
0.02057980830970034	0.008997750256174506	-0.02054298463257586	-0.02494950707111351
0.03082985838860085	0.01270269222555713	0.02010743320429705	-0.01641345767226286
0.03139458569835661	0.01040533839273326	0.02533879404514379	-0.003817154965049915
0.01513339169492818	-0.01763221948420136	0.01410335816464687	0.003727610075748301
0.02713487457103345	-0.04428384593610361	-0.02489824891946519	0.04305086885083013
0.03732669557121242	-0.04527363281713577	-0.05598019827545873	0.07176338070405583
0.04414908285494728	-0.0330307858985936	-0.04007506585616907	0.08107793699028835
0.02538153323494152	-0.02052082310556057	-0.05325657124928936	0.08755478020473198
0.01968970949008368	0.01569931586151855	-0.01416536960737684	0.06715672272890448
0.02886258520334668	0.02005790763374587	0.03498002384468886	-0.01036594511874455
0.02862815367266594	0.02115819896024704	0.1101262118257675	-0.05305259138766336
0.02230489826842005	0.01845719203019469	0.1152579534537099	-0.0907164020892543
0.002331028561079836	0.02910791935043608	0.06156686065201063	-0.07835040823179017
-0.01941097434154385	0.004356854154728162	0.006965410158270983	-0.07563912937637625
-0.04016531239392648	-0.0210527022154153	0.03456860867157781	-0.07000212512759818
-0.0454112390582999	-0.02795986647154073	0.01696762145051577	-0.08140221574412103
-0.05135507842870853	-0.03368835195014318	-0.002316979454092424	-0.05387041554618517
-0.03606655052775228	-0.01643372646661218	-0.01489805195680173	-0.006462064473839168
-0.01995705371107616	0.01267295991535659	1.210750653221192e-06	0.01826738036676219
-0.01015848549392205	0.01314984505899366	-0.002023273690680844	0.09865945838312992
-0.002160756515477698	0.01152925900740602	-0.02410796524860206	0.09987840845353931
0.001969620818954215	0.01840721522260565	-0.003164236509991917	0.06864505364125646
-0.000101399888030014	0.01644611447914653	-0.08655714323189588	0.01624171240159606
0.01196819224779653	0.004148002372474744	-0.06804108616630712	-0.0359897394648107
0.02162928352240336	0.0007847317418377416	-0.03119190868440228	0.07995553212258071
0.006959896459333289	-0.005065388522069947	-0.02793517203843395	0.08737512690807421
0.008202570248102619	-0.006131648406577169	-0.01446834682779633	0.05399954832826991
0.01552555097697578	0.001067044982479991	0.02915053466696428	0.02584166267015853
0.01897686455170377	0.002070141643614713	0.06546826591107371	-0.04213735210935733
0.02246189499540737	0.01424280094234525	0.0807066508260495	-0.09427174783572934
-0.0003490723778408347	-0.001204907715554273	-0.02006721617100816	-0.0748676231154663
0.001339350384014737	-0.0214789059576982	-0.06064304841287131	-0.09418892499031047
0.005937001050366055	-0.02778048831755201	-0.03732808249708863	-0.1112486413419249
0.006796916624304677	-0.03335130878127595	-0.02074465826890692	-0.09169078686527106
0.005722490175447303	-0.02689611488533354	-0.01457021801435965	-0.01516420799681022
-0.00415550936873175	-0.03234707294872858	0.004982690241813002	0.08534422161283343
-0.02679571500820994	-0.04618389630843551	0.05795289887443959	0.06629420936403754
-0.03983178052962492	-0.03173104570667627	0.02065485927102029	-0.01619625511783307
-0.02147518015738295	0.001920826459116887	0.01975510378708431	-0.01442401442121399
-0.004239139704070107	0.02166185439023437	0.08692327419238054	-0.00542426978215663
-0.007296040881099366	0.03826683406811276	0.1039467901024553	-0.01620704365495967
-0.01003861158039441	0.05804832297458034	0.04935354947463882	-0.01125301402857592
-0.01532426183279639	0.08377286789581498	0.05386377984566258	0.08679758861714269
0.005295885611530281	0.09010391365528915	0.02386519103984703	0.2640270146003968
0.01744274665033259	0.08350993408075749	-0.02671855453548418	0.2876902667280922
0.0196671498736652	0.06570378866243953	-0.05323263230005804	0.189084939900589
0.001366509948426868	0.01748580305752026	-0.04310185946873068	-0.03011086007517769
-0.01164726029526399	-0.01650669224347176	-0.09606333361560909	-0.1099709729829167
-0.01902782124816889	-0.04303480723540987	-0.1713570429973157	-0.2342574153119656
-0.02434719685932614	-0.07069238819785072	-0.1262731220824122	-0.263267131110785
-0.01605289844579684	-0.04021881916828333	-0.1002289897307719	-0.1803262542024496
-0.01627082665083352	-0.02938155261945863	-0.1214743453300469	-0.06260473116591349
-0.0203544411200847	-0.02231496023280911	-0.03440717999515335	-0.01251205680957509
-0.0156558594017228	0.007312342412020964	-0.06528311373801746	-0.007167053825311828
-0.03311608469376896	0.006470319568663831	0.01389066534398616	-0.006574913632193865
-0.03044955020833226	-0.0123196397229371	0.1762932197997793	0.05122699388312991
-0.003526186655094286	-0.0213051579545649	0.2341178794366501	0.06333370802099075
0.004238201352963346	-0.01323842997162631	0.2287744720082823	0.0264693020802088
0.04166325679154516	0.07010326166285043	0.2164893768453195	0.0181968753947546
0.03379585764821474	0.05464816264769851	0.1161548433456993	0.004796775260167352
0.03586460151978653	0.03461276466315048	0.1129080990737058	0.04078172806802853
0.01990494335116664	0.007826337836396274	0.03475943890009537	0.08520104123386543
0.01436647310701101	-0.0234343592138256	-0.06259993279119797	0.09263610092758973
0.009998635052123939	-0.03666642997358473	-0.07420092002291707	0.07338574655159393
0.02600956130799459	-0.02857522296155033	-0.07649576786710037	-0.01832363402008396
0.03174526266434356	-0.0263765808770109	-0.06580416153156585	-0.08046315509500158
0.007208606527134836	-0.03048893775765689	-0.0504541123277789	-0.08459650665080651
-0.01356365103417333	-0.03108282321216984	-0.07024412823491806	-0.007972632471130213
-0.03076367849899261	-0.02719486851245214	-0.06443315476950238	0.01440998045996804
-0.02084790475646393	-0.001845618789065777	-0.07702228135424183	0.0180464074611795
0.008973470566612105	0.02237420521302958	-0.05804806814354926	0.0383649168697685
-0.01605139462279058	0.0127346780027903	0.0520404211980107	-0.01874209763055961
-0.04018647003293631	-0.003520665883242382	0.05032049693340215	-0.1200441130643335
-0.04804037333135876	-0.007937032546117467	-0.007217081522500108	-0.1021413386489006
-0.02272242146006124	-0.003483246250151555	-0.03922520742344887	-0.04406562742527437
0.0244275969871578	0.02177388429589715	-0.03010669242467776	-0.01585442417612076
0.03409568360363786	0.01187438129529577	-0.008224284918422572	0.02756077064541304
0.03517341127839992	0.003213449355219891	-0.03247538335557322	0.09909352351366353
0.02895683782006717	0.01657200313094742	-0.01835144013122341	0.148428146961289
0.02354409999668126	0.02355555350883914	-0.02884938351125423	0.135275955664593
0.002456983363746869	0.006797947578152809	-0.01020668137121894	0.07720153473411594
-0.009639217817100337	-0.002935142128376375	0.01825262876912112	0.007229631245924567
-0.02268984744706301	-0.01293166759449315	-0.009336684061811706	-0.1837802943960862
-0.02477849074035498	-0.005662043302263956	-0.03725678152333222	-0.1704322570431936
-0.0416280458450964	-0.02052177049024692	-0.08356996503303638	-0.06928865751653331
-0.0207468477830201	-0.02998500887931932	-0.08635140114966304	-0.02745471016082802
0.01080852169106792	-0.0241861859940387	-0.04969530360946468	-0.009529945397265462
0.01513625326236867	-0.0185575194575768	-0.04405886778025598	0.0008951916679624423
0.01862018143577399	-0.006977686360018472	0.00868463493044664	0.01321923307252821
0.01551938214745426	-0.01314368750959796	0.01613079825412267	0.02049142253286668
0.01430326867275977	-0.003549821204832309	0.02228626709653237	0.08358318818587272
0.01571723931913833	0.003456089732921194	0.07126248212309495	0.05808915425699259
0.02393809054601247	0.01945245344367344	0.08069783098275601	0.01778099306252848
0.03074766204055047	0.04402496279236532	0.03360747305864339	-0.009180130291595506
0.02229415507383658	0.05474487678538059	0.03710808759196033	-0.02097346718638279
0.007595827970546667	0.05570836106326386	0.07949934517831579	-0.02157892246147989
0.01024315008568959	0.03138393024201009	0.02967626634744378	0.0005980775341798085
0.003197917439044863	0.01506234423855949	-0.02839838674673223	0.001110247986812444
0.02841578033799291	0.001919919276533171	-0.04249906717568372	0.005512597017087756
0.03619398585012163	-0.006287717560280465	-0.04194969764093263	-0.02635565463435806
0.03118848577853184	-0.01790575334649618	-0.01967219949372272	-0.04768526972548863
-0.005297287831226773	-0.01590753798984649	0.01483975806066111	-0.04719240600645008
-0.02086037736301145	-0.01118761635533869	0.06405815315320548	0.01976866188441634
-0.01052184741868998	-0.00530640144898656	0.08108755406103833	0.1126059735564761
-0.0005647924155032508	0.007997075661094559	0.06658462954259381	0.07177386836898977
-0.01083722928654015	0.00230630592603949	0.00581727366794904	0.07774706372651376
-0.04374314825681688	-0.01374362772860897	-0.05307041351971619	0.2219188761457335
-0.05745202385116868	-0.02574121009142575	-0.06154140417139174	0.1805878700115577
-0.05533661398473944	-0.04601818357231733	-0.047650721599072	0.1078018018977053
-0.01685725103797407	-0.03308175773872282	-0.07744813839364931	-0.01272822463255376
-0.02114428279255032	-0.018183760847693	-0.06439207732294727	-0.04652422478725612
-0.02658742281557733	-0.00995439613410107	-0.0640453541052598	-0.1176599866035631
-0.01309861222787528	-0.007881116192858958	-0.02359376069796198	-0.1059159556626681
-0.009841783308910296	-0.002303749723087934	0.05613045736646834	-0.04151602506822799
-0.01274748825621953	-0.002219164794023214	0.05462400195509457	-0.05363636663561683
-0.0112581856779689	0.007502261240336597	0.0884186075402881	-0.08432841771495653
-0.01074692164938934	0.01601961274428293	0.07299187025722503	-0.07693595903638377
0.008758726972859879	0.02541179957623806	0.0405231248419865	-0.02467675598802463
0.02112789359436414	0.01789413784691894	0.02066861250775881	0.05495246774728221
0.007614021935425049	-0.004528796828176228	-0.02185250903595166	0.04566004449652628
0.004559633853798576	-0.003844551387555628	-0.03407709926649331	0.01007409146331117
0.01043834221924101	-0.01645564937161609	-0.02365799820775579	-0.09326346458495216
0.0128715957448458	-0.01791395169549768	0.01559058573647795	-0.07748674963256195
0.01495252774082182	-0.02161759712642235	-0.003623676764897962	-0.05806056638861399
0.02222974697717112	-0.03342265426762072	0.01170963792770008	-0.05534650664453986
0.01914928672716901	-0.05132971624521913	0.031871951836533	-0.01750394675072745
0.01217293886476594	-0.04056393113150372	0.06953633118737852	0.003480175193566607
0.01024482403359401	-0.01110638360948915	0.01806686956578998	-0.01088932783472278
0.01788189819914003	0.03114770968861194	-0.01644250413014477	-0.009786307040969645
0.01171840400686223	0.06115694031630111	-0.03416252515657602	-0.01212910970788566
0.007534002288573142	0.03857573050343784	-0.05687774084637313	-0.02122798792067575
-0.005727847058434242	0.01559582916761769	-0.08146857620330293	-0.01108461638098302
-0.01536107139917842	0.01215170642816416	-0.04357826933193425	0.01862517642402614
-0.0180205889794155	0.01443590231797099	0.04641461543836306	0.0959372208314517
-0.01439564250911017	-0.0005895789285076305	0.02012436538131783	0.1036287205518968
-0.009969905468307713	-0.003570877769105741	0.06337271231783137	0.0798741234091241
-0.001053000326193364	-0.01816965944457066	0.01033985577600884	0.03007830766063703
0.002575802779416726	-0.02314278985075875	-0.03752964345081391	-0.04438268811126008
-0.0219882496045471	-0.01754988488955976	-0.05771101035019071	-0.09301538400767312
-0.02061573723912383	-0.002701482853245197	0.04388336890532896	-0.09304396130447051
-0.0117362390496706	-0.001003715729900457	0.08410855219292956	-0.0358251131539759
0.008725111350365121	0.0009872151300545733	-0.02899872160074047	-0.001348562851962353
0.03583826723775613	0.01796954813342696	-0.02356221712818424	0.1032100033612404
0.04201123304017288	0.03492837167807396	0.03754814333054343	0.1349851360236108
0.04853679399408369	0.05643375327215056	0.02719694064024292	0.1011274408790277
0.03920748441391789	0.05815448824147417	0.006315964627916129	0.03831749567126827
0.01872642806909465	0.05111017793271096	0.07502441782300584	-0.03329467852098592
-0.0001034799641795848	0.01934774938704838	0.02969709435258198	-0.0771954454543522
-0.01668015930974626	-0.02609717129167242	0.02507357091378557	-0.08475916490641845
-0.014814121694193	-0.03757191154125548	-0.006548354157607054	-0.08633979635734404
-0.01063680593152775	-0.04624250655422246	0.07131958161418245	-0.1228411368782867
-0.0366988520089214	-0.04010388765886162	0.005652889067759383	-0.1478410719068845
-0.02168120044103606	-0.04107059914738933	-0.04724344088875966	-0.1175557915538263
0.007259427482167314	-0.01596192433435054	-0.08641835640404982	-0.05366932467854532
0.005912307582546642	0.003397550168764402	-0.07203203700307426	-0.04332064529801191
-0.003592430354481215	0.01793569147432623	-0.005919484496586969	0.00232428472559261
0.005622089574957891	0.01986170684582768	-0.01041668487562543	0.0960164311675593
-0.01603288903262903	0.01040026208014251	-0.01177473476793529	0.1573666669995171
-0.01208498829400681	-0.009429830937613041	-0.001222765763494011	0.1085611425414491
-0.008707688677179503	-0.01931536201792447	-0.01207185005000241	0.1011072057879939
-0.007884928792188311	-0.01706696910086766	-0.01261686649260958	0.08228094216028749
-0.001281376149909331	-0.007391426419590208	-0.03629249485468574	0.04426696265104456
0.003867630149776854	0.003353959853284579	-0.03250145235448019	-0.004379560419164851
-0.01697519996832273	0.01792368689573068	0.02433202497589659	-0.01104522794497483
0.0007101120466671967	0.0303316055109628	0.09002989933501354	0.008693810144921221
-0.006077258800331553	0.02706186386104626	0.05955069941292858	0.05049543099054354
-0.005310424908067973	0.03772161556043892	0.00196414182117756	0.01990522407173627
0.02005595198957821	0.03737347649857853	-0.05157366562682487	0.06379631626042342
0.03721360772261717	0.03773806749142371	-0.05904189945734135	0.05296738970711347
0.01592576675382424	0.02033457574693804	-0.07381322587912977	0.03360673085542835
-0.01043890710445944	0.01487920294678209	-0.08112328241131617	0.02660113561390648
-0.01600023847134943	0.01314375797836374	-0.06310866933836326	-0.02844061270372815
-0.02378789446620971	0.01144285334252413	-0.01174209855218237	-0.03087877901706887
-0.0189954000318423	0.0138408921632998	-0.01625220891964252	-0.1747594202734938
-0.01426895548981601	0.002620038913662442	-0.03743424719938661	-0.1840894145838097
-0.02745803435169609	0.0009399151760036881	-0.01082048956384768	-0.1320569266664453
-0.03275829166018616	0.001188786170984774	0.03039248931574161	0.01695107525990514
-0.01988005562028975	-0.04007694609772691	0.09917980026130448	0.01501028382127256
-0.006482371340863625	-0.04402855849516338	0.03431733187219538	0.01263889847945412
0.01232602626586166	-0.027510792305815	0.01091685365796278	0.06836849901586455
0.01738070831159189	-0.01394020100077215	0.04121172399190006	0.09573780430879396
0.01933578906722704	-0.01082166338229088	0.02253563259903734	0.0804357305303206
0.01407566501434651	-0.01694140569965031	0.02328088042613323	-0.0003704177861039054
0.01613159781202167	-0.02058228764706635	0.02590597981894673	-0.07082627751937837
0.003861430098081522	-0.023023556402112	-0.0102819534625542	-0.0801958382180633
-0.01763947629359748	-0.02277082494407258	-0.09261649933700475	-0.03186053126688448
-0.02252831421414169	-0.02486209486815082	-0.04038577727380924	0.02804509795538358
-0.008848883798381326	-0.009572327962577249	0.002133029929392571	0.05366533766606956
0.01210036883100095	0.01844807919620895	-0.0385285415658841	0.02179546495771748
0.02359012253708099	0.03063052509847732	0.02966764979290455	-0.004690941085504344
0.06212691474706511	0.06731310342335448	0.04126780349004636	-0.03760599089394378
0.06817230461346642	0.09354113555197954	0.05570142037814812	0.003713296641196796
0.05853297988787175	0.06493415197558353	0.02179177397221493	0.04446528017986655
0.05188567101167543	0.02224743863778999	0.01170290878672653	0.06822650117615783
0.03405906911708204	-0.01958393398961097	0.03679377118153421	0.05748625539491239
0.01306585806445152	-0.02542084071475125	0.02573652386969997	0.04986021738803956
-0.02382136621477045	-0.03146552063396457	0.0005475533073854184	0.02835020660219368
-0.05831665717456586	-0.03816039315494379	0.005248418240705679	0.01406152118498354
-0.06478593840410957	-0.05118002738371739	0.004577841830973956	-0.003796703637097876
-0.05858499199886472	-0.03781169128754885	0.03996762647865221	-0.05255883668575931
-0.06824545367022709	-0.01977200010295267	0.01478706793669713	-0.0701666184490016
-0.03936500237516583	-0.005627793983587691	0.02212082629038375	-0.02953770587270732
-0.02550003416618624	-0.01295311390843864	0.001770189900461481	0.01372371212114897
0.01657764513795956	-0.002512670871488696	-0.03723327703846538	0.07877965817595692
0.02379822147703741	-0.01498886604232373	-0.05361659856175888	0.07702062417096431
0.03125268411171483	-0.01695896195307214	-0.02024675473232961	0.05709884436189172
0.02500691088870031	-0.03319405998508086	-0.006159916643430482	0.05688502167199264
0.004280256783226576	-0.04469747850262166	-0.001376199487016288	0.0312995442693082
0.002857710955895522	-0.0421314187623731	-0.006189253952147615	-0.01904326397983646
-0.007035814172113007	-0.0342473935689238	-0.04633152463984683	-0.08150222602465783
-0.002769257918952	-0.01918857193636947	-0.04968912535370296	-0.1340899120603502
-0.002378192806228798	-0.02710104913572431	-0.05265313460143786	-0.1463831817080965
0.003551994253742619	-0.01386707536414392	-0.0531750953596803	-0.1319830837224435
0.004365700101899426	-0.003311191946364725	-0.03148924400611008	-0.1261584829001192
-0.002320014092457746	-0.01946945756243092	0.03358373873897257	-0.05366710482936621
-0.0005276196584468307	-0.0001105057314166862	0.06657995168418959	0.09542309904642983
0.006841364677423464	0.02201468367352413	0.008899175167951986	0.1151112586790416
0.01079910428139581	0.05684446951576758	-0.0530234294963273	0.05149964370444282
0.02024959551629726	0.08921995676575711	0.07134435428566038	-0.004725256488325827
0.03050940893181225	0.09614540786857279	0.08867482423612823	0.0426752778916637
0.01438567091089105	0.07529951147971237	0.06600541587035511	0.060099271144166
0.009324417599336053	0.04426019316472982	0.03388279935784606	0.02769685105858369
0.003432763999069647	0.01651701799920636	0.003954009726045928	0.02699432744412792
-0.008084968104791274	-0.001058751159976533	0.006205036868469482	0.01629826678028253
-0.01163573718061802	-0.01472616676304048	-0.02582671009683305	0.0349075698728146
-0.01338951031883493	-0.03004429894935242	-0.02874097387653072	0.05987034766442027
-0.01764971039922953	-0.03854166391373153	-0.03329757287679008	0.07973443331912848
-0.01195261073615116	-0.03405369102650371	0.0008688818236828684	0.07730116176261924
-0.01592526617956898	-0.0324232531275067	0.1062924605512789	0.02982236345603839
-0.01113089797759631	-0.02452382211736024	0.09497048298312906	-0.03541852460605723
-0.0141849638633047	-0.02218187841002697	-0.02019903880618298	-0.09110089189916853
0.004435555546014243	-0.007874610337179211	-0.1130741548960714	-0.1208844236279352
-0.0004379286973587436	-0.02396508726907558	-0.166271351046449	-0.102261058325343
0.001165478131366998	-0.0151513479007052	-0.1136304051193627	-0.04479003044733543
0.00911973179163687	-0.01008111966335925	0.07908406798167836	-0.02632460409730827
0.009367069144748601	-0.005542052051570107	0.07450881128063863	-0.004793796536286997
0.01361133259734907	0.008080263045498803	-0.02121415455969704	-0.02037403826696881
0.0242903041279251	0.01803877568894552	-0.009926354578195209	-0.02028927334490866
0.03789446216581265	0.02300084408105981	0.02265340281258692	0.01455965587114522
0.04095483404256951	0.01836356564108192	0.02964067783098801	0.1039750704216562
0.0319331914979772	0.01600864140012911	0.03078479990864573	0.1200817760269131
0.00792115240607395	-0.001122970438694405	0.06039269063963319	0.04595076993148237
0.005887236105223764	-0.01753658241519344	0.06255014459274248	-0.04907322125460011
0.005176983484104004	-0.02846532132012766	0.05285937432852347	-0.1177664826913844
-0.01680374767716379	-0.03971885570942946	0.01216162458954947	-0.1365832951555769
-0.0366005718039521	-0.0452719750828422	-0.03687183449417342	-0.1129084496015437
-0.03861999589363473	-0.03538620966655508	-0.04694251315513637	-0.08490447120426371
-0.0316712971994833	-0.04071067145663581	-0.02379028403222692	-0.009828061282403582
-0.02359800089103542	-0.05542310939616087	-0.03790397993852384	-0.01913591782102966
-0.04559798270798165	-0.02313786796007222	-0.02320494997983077	0.0008365981529276216
-0.06424020562417566	0.02878356578418667	-0.03378543746364691	0.007798089940752245
-0.02554473534311535	0.05181125430449669	-0.02675470744656283	0.003920907612563531
-0.00397761327874559	0.0745513987763458	-0.05163170874988354	0.1121509043062865
0.006785495925192755	0.1068462946975825	-0.004066538177136743	0.1504300647796347
0.02242438555868717	0.1323144216525534	-0.02696719985954115	0.06463898729455711
0.04161708026645456	0.1315227516966438	-0.03983728374525446	-0.0319803082315117
0.03647464794457823	0.1022624505460745	-0.05330910818102613	-0.109907214008377
0.01950915909730688	0.0651314874967861	-0.02770549671207649	-0.1098967286450961
0.001753235503197788	0.02762242439312154	0.008989926304443589	-0.08295412686626273
-0.006989468424084737	0.01292255507141518	0.07645580527996784	0.0089984498075964
-0.03923132537764661	0.004753666359599365	0.08235975479457863	0.03958906765496059
-0.03470160810076318	0.00703106495321734	0.07636910018276527	0.03571814886392045
-0.01171764342187303	-0.023288045975075	0.02638214820175332	0.03623368747100715
-0.02040210125370038	-0.04247461186985363	0.01702745486797044	0.03979200569245415
-0.04990240045653725	-0.06369585688639871	0.02353229276013596	0.04699341013760809
-0.03342688919414412	-0.0631881867773435	0.008114966321498076	0.05034343873930194
-0.006661932598891144	-0.05319302421906028	-0.003241540054950027	0.03355295147686702
0.01426781659808453	-0.0472113921080862	-0.0661595286982905	0.02578652132925543
0.01014272516040978	-0.0343085468345447	-0.041238581990868	0.01730673455961083
0.007811397655124914	-0.03967483402548459	-0.03635859868397592	-0.0104086398075477
0.02164906172245554	-0.03596591517210633	-0.04525018416754926	0.006180589333904752
0.03942619778456728	-0.02085469580003998	-0.05133649523404762	0.0615916962065074
0.06154751516309307	-0.009988285931677034	-0.05568306546779119	0.09087045871618854
0.05665333218718586	-0.01542575802126912	-0.04519664430959438	0.06415565360200853
0.03083216968907025	-0.02614651773659781	-0.01511013189774878	0.1330873442051227
0.01058128434711342	-0.02395162693401639	-0.006617166231702906	0.1457987684107968
-0.008851110495365154	-0.02606608004020002	0.003691647203932332	0.08496506552871801
-0.01463849103719355	-0.02301615418299837	-0.02284414088855117	-0.02894292562250187
-0.04849399370137179	-0.01735448421875839	0.05879963781489041	-0.1002801790500965
-0.05148473924312795	-0.01872197906661414	0.1059985820099782	-0.1017932828508221
-0.07259774006723532	-0.02738185175696112	0.05156924737564346	-0.1206197234973587
-0.06059466028009622	-0.02118281056050296	0.04185965891259806	-0.118792569699667
-0.01469735384581692	0.002328580042879056	0.03282749062625732	-0.1118751761155825
0.03029605736448474	0.06622109709025911	0.002522321369796279	-0.05333826923672799
0.03931415037460389	0.05303977738907986	-0.1010368968601215	-0.03230972905855994
0.03577928661434044	0.03976941370460045	0.0292419671980844	0.0007102210999101344
0.03319307951581263	0.04212631792129146	0.172493094589373	0.002757395745959176
0.03880451884275163	0.02670873016074116	0.08769573364878333	-0.03866630347040633
0.03869553665694729	0.007416579468666111	0.0163875098409916	-0.04174236350537315
0.033358521852188	-0.01663964313067786	0.04811391202186543	-0.0230527396603687
0.02283551618014392	-0.03138670579331085	-0.002203173862528367	-0.006467088789569724
-0.006086958868681602	-0.02024321769040586	-0.02963277456802943	0.005656285909623928
-0.01660008751019155	0.01470672107289727	-0.0581065537155326	0.04400795609401861
-0.03465104988960217	0.008885841727939339	0.0339472365233939	0.03843078848840589
-0.02338008012533521	0.01565125599620833	0.03864678522499228	0.04616714789690408
-0.01385736052634954	0.01633667267951564	-0.01961052018871486	0.03885798280242699
0.01711090004272882	0.02574135212274824	-0.02562022411178159	0.08852664213378375
0.03571793124185553	0.04446525405834803	-0.04073281979452923	0.1713247572869797
0.03877875196745631	0.02149184584698806	-0.08549068393303152	0.07349959774652133
0.03163564726903014	0.01443462104131618	-0.07801359115728229	0.03977093825802538
0.0393615381797275	0.02592647104360761	-0.06912904848191626	0.03975235458160176
0.04180544555872495	0.0302029599793339	0.009352291614251057	0.006508522714545676
0.03663942887797821	0.04126181199012213	0.09027281670194845	-0.02733609874785268
0.03193315225747331	0.02384590227307702	0.08967636209264208	-0.08822550928808999
0.03448915519901014	-0.0004318479142552211	0.03731800076242307	-0.1153724094100009
0.03034437692432621	-0.01527185466076791	0.01834908053687429	-0.08215475656883818
0.0005306505564337205	-0.01692644013951195	-0.04888772290857134	-0.04945701507680929
-0.03284594359185292	-0.0162401564700531	-0.06564971819165938	-0.04756479000629907
-0.02638530983734003	-0.005780602150972481	-0.08434102448726986	-0.01527172229806443
-0.03064753747088151	-0.004160442493909932	-0.03651539384991082	0.02291882295920117
-0.03114590466885955	-0.002526971985976162	0.09865890114343731	0.03685203433665915
-0.04239872497674698	-0.05211232815666084	0.09147129217144319	0.03467907604692246
-0.06665034480787721	-0.07916852072552628	0.01298997639989755	-0.01167641318940015
-0.07880462418977671	-0.06367627047343978	-0.0004081523653573992	-0.05588227467369377
-0.05911288874664097	-0.04282818129559	-0.0286035765114877	-0.05235095568633145
-0.01159655076874984	-0.02118197020892204	-0.03836910016948742	-0.02741179757515688
0.0187047451734771	-0.01694281742488841	-0.02360182496787312	0.02872146035758064
0.0218447325461031	-0.01497472381853601	0.02389602104873646	0.01003480201072055
0.02474979467955723	0.02090553951986171	-0.02023275550679767	0.07128150256442728
0.04068199738049417	0.05069691804232606	-0.0197969401098638	0.02296165126753041
0.04436654481967721	0.04439857141413907	0.03932389378334662	-0.0269263097516861
0.02339423876701125	0.03611517403328949	0.04577852410502944	-0.02906287167122416
0.01314754768915316	0.0292606745655306	-0.007103403505848803	-0.02104679732333713
-0.001913244897600049	0.005587285508262177	-0.1338865446375256	-0.02425377681788976
-0.02401205370208077	-0.02066346661609752	-0.1460503454864206	-0.02634360798235966
-0.04790372695330265	-0.03892237061336979	-0.1405409555608415	-0.019713824309458
-0.06071196535701304	-0.02905289226658437	-0.1301059272930859	-0.01467686996873938
-0.03687552569555615	-0.02147669582043911	0.001925208441309785	0.0140634460697181
-0.0253173355776476	-0.02792875399409906	0.009546099247480544	0.01607959580684287
-0.02283870147939343	-0.005548342615999611	0.04417385025520716	0.008001444549995514
-0.02155790143167344	0.005144548000577526	0.1341829346055782	0.02158127652139259
-0.006101174937019642	0.009687144411897348	0.1036020056458332	0.03035034992161151
-0.003737172543400105	0.01969765703509954	0.07221519213455535	0.0003954813575235558
-0.009070170488093655	0.001829190204484637	0.09570839920773395	0.06239999716727615
-0.004043961945691173	-0.008768517490333676	0.0459454198597118	0.1034771856160032
0.004614952739256964	-0.01240895714053901	-0.01793473905136539	0.02106037482643201
0.01145755666722489	-0.0141326240337882	-0.04736470602923589	-0.05250774951198596
0.01555833055032165	-0.007062859624334963	-0.09544608225485748	-0.1029720447066884
-0.001327116251381338	-0.009776499371149038	-0.05110769321569893	-0.05309043679489455
-0.0007514178493309037	0.004599554824985042	-0.0028103409405729	0.04365668574168326
-0.004147210913693977	-0.0009636256017474427	0.03803254265842448	0.05270755632781046
-0.007600891185637094	-0.01836327338955489	0.009020115812408346	-0.03262662744296276
0.009658781410708391	-0.01016265982006853	-0.02924838123054808	-0.1355968295730531
0.005347973774292084	0.0005062772503166003	-0.02754251471727867	-0.1228386944200075
0.007495477763349762	0.00490108074329106	-0.01931402290619678	-0.03368340547573461
0.007474267309776733	0.0009009871784492521	-0.04696315078600122	-0.007042158600196076
0.01215031079278747	-0.01495932562051733	-5.126417679240491e-05	0.008049154159791721
0.0142968224740254	-0.02076131326229582	0.09588200178372336	-0.01118470153008312
0.02260699083028218	-0.01148557341077009	0.1906436490110989	-0.01715701251362298
0.02886830621346697	-0.02429294288855373	0.08596472846100117	0.0005290954050734245
0.01223291770393249	-0.0340183434755055	-0.01898252654712207	0.01698923681920616
0.01929854254783169	-0.02906062621966031	-0.0177432384489663	0.01466632666107391
0.02489163642317168	-0.02075201684641774	2.766442107622445e-05	0.01310161219339841
0.02576980085808857	0.0052819680158911	-0.0193214523460737	0.02177022856236705
0.02097837607303715	0.03471015849810827	-0.06105532978460798	0.03085047783450318
0.01556788147385016	0.06689371845838268	-0.007888746371402303	0.01412740488489231
-0.007254251743954626	0.09843964233947604	0.05150836243072031	0.01325124084981627
-0.02087591318625153	0.09598925016871471	0.02942036642206062	0.02431214030243594
-0.02813551134176143	0.06836107318128939	-0.0003233942018383828	0.04503052869417615
-0.01950518849430296	0.0560184070848193	0.03495571924460596	0.06090319996098642
-0.0005580228508584614	0.03335607290858763	-0.02587124834353637	0.1208274180104258
-0.005754093627000698	0.0002321563416042192	-0.07593192955414139	0.13403605418898
-0.0101412225587617	-0.02922770973563798	-0.03270280708935762	0.09267396431000839
-0.005996742278108804	-0.04545021071452143	0.01372056408294157	0.08896092485243608
-0.006020304025741572	-0.03906615814723329	0.01853572015449769	0.0385655442996339
-0.001308840164920586	-0.03387387045622556	0.01997571394965004	-0.09677428734370251
0.0008569557894042107	-0.02115801136488713	0.09216818863230812	-0.1114147170457716
0.01643971320081085	0.00731650981049353	0.191886561125121	-0.03499537278092913
0.02758764428476567	0.01751775337374523	0.03122126468956125	-0.007526421622421547
0.02742715848598769	0.02138056066190811	-0.08119069633008145	-0.02733180134216572
0.007984828942708931	0.02816048576553561	-0.03758910419238067	0.1157077728491292
0.00498619938424496	0.01830853133094094	-0.02618640124796653	0.05770033885664878
0.02240734549889309	0.01298465506833214	-0.02440617848766521	-0.02608965265136205
0.01959775943500111	0.02009049546739323	-0.01484496631720184	-0.03527401734592118
0.02102355404446688	0.004548670739179551	0.01963947481339574	-0.06789233593340953
0.01467581680410922	-0.0151471300563879	0.001944653575594243	-0.03622761078133663
-0.03134163234837774	-0.04161414459438963	-0.1844703553955702	-0.04163084766005645
-0.03850132835994334	-0.04759766019091682	0.009175530432316774	0.08607153129983493
-0.02340347969401568	-0.04316890660353578	-0.002567761548752032	0.03942601471365358
-0.02081254568035597	-0.02731231013836175	-0.04217022276505833	0.000222955816439165
-0.03317959087382075	-0.02069311101126118	-0.03631970767669064	-0.02255734881555371
-0.01653752260471004	-0.01085321834523603	-0.0104422451737664	-0.0376770508885578
-0.003471410557284329	-0.01371132311604059	0.004631660273502293	-0.0235080349757184
0.02129268078543314	-0.03004532932129198	-0.01807975528947042	0.0117660372700545
0.02616628344808214	-0.02310784816997354	-0.01557426245369639	0.07598037519437677
0.02181851964422367	-0.01579330378783982	-0.01369373318840797	0.01769178800684038
0.009994970407843844	-0.01080474318219487	-0.04213866213533757	-0.0954609831435657
-0.01281145611469642	-0.006984083834212788	-0.0585896650016634	-0.1273655653563323
0.003519065992735112	0.0235551666009345	-0.009471142072868945	-0.0874015205533115
0.003537153788366679	0.05521853211292969	-0.005719566218204472	-0.065260149102689
0.005286051624896366	0.07199382751316943	-0.04440680936361533	-0.02054522936794214
-0.005029760028811873	0.08265766717595897	0.004069993394023396	0.04194350075975581
-0.03717641592077855	0.07017734245538297	0.01638319429882179	0.05515031472966526
-0.02094404090754996	0.04679705813075611	-0.01841696363662877	0.02715828336930166
0.001399131608759971	0.009305975669354226	-0.007464720566702582	-0.06071327511971274
0.007749406617607194	-0.01073964455511459	0.11093829921298	-0.09261274439047082
0.001786922952876503	-0.006047786228465412	0.1482706539260665	-0.04920776301656674
-0.03634462878736287	-0.006913345388447721	0.0622161923595427	-0.04890388585640956
-0.06915333914576319	-0.01412144151395071	-0.02227723181813605	-0.05040515433974964
-0.04572342816443756	-0.01278533464104262	-0.01680911827466038	-0.03048192275289517
-0.02024069983708194	-0.01581447909876897	0.02133192676093611	-0.02171009277534344
-0.01013253303346659	-0.02229835570219692	-0.03550352815253118	-0.03565755112407133
0.009013238744690188	-0.01761220963344215	-0.02590754031510017	-0.0162161685643212
0.02421673933719588	-0.02206885503133436	-0.02815150548837394	0.1311714337401151
0.01229789712221131	-0.01617795709250371	-0.04899887194963821	0.09695691194544061
0.008637530207991123	-0.009536255976869247	-0.003155213037830165	0.02167928451420028
0.007677364896824454	-0.01043740757025599	0.03389392927118726	-0.01791503082067922
0.01366789851487615	-0.00482021188069195	0.1047025832746955	-0.08478213613872231
0.01830981225720728	-0.001911829103878214	0.1337129348289209	-0.06897595716252443
0.007620572312414631	-0.01366802648268097	0.06941224762115653	0.02470431682677498
0.02497415561609804	-0.01084244402255036	0.05336359528114806	0.04154418660400712
0.0176384082144011	-0.009223877038168782	0.02917168385056278	0.005014265379307001
0.01348851794031496	-0.0106172241893136	-0.04908032573940851	0.02580779680826584
0.01453492290817493	-0.02346637276781168	-0.07714388163271704	0.06264385758235685
0.02009755364368703	-0.003415583701038257	-0.09373219999535673	0.09365656184723362
0.003744025051709539	-0.002267486569063631	-0.07758843444566363	0.03748505975326132
-0.01783759778439541	-0.01736943898951543	0.07960059867147982	0.0431730130746976
-0.01406251725244108	-0.01806591379920693	0.06421201366748162	0.05918884813070454
0.002267835387983592	-0.00583936739457208	0.05201548387647067	0.04652867073333065
-0.01086717330007391	-0.01259287382343295	0.01507192633239142	0.05600988030331435
-0.01157724157525164	0.001726666151247103	-0.0306838081930227	0.0554353329848072
-0.02360559635282662	0.01534982206442762	-0.05980616408067133	0.04052624037976599
-0.03073869642354433	0.007192878755130592	-0.08277418082800496	0.009151288225409332
-0.02186153795800807	0.004605143563720959	-0.07891876997153648	-0.001988149056732336
0.01267376202674709	0.002431719186667038	-0.04459757064930132	-0.04446318706435301
0.02035366500760989	0.01048940988334678	-0.04793620642759918	-0.0157204888094369
0.02712814608119457	0.03309886490193453	-0.06373804114175398	-0.02690101544915014
0.03145950914513967	0.03175393293232967	-0.04059762279550041	-0.007698613942905622
0.03867983056872124	0.02797887688313495	-0.02864848385830009	0.09206408488220322
0.04325542917664452	0.01602686829320395	-0.01314046287270922	0.2898897837736339
0.04185214629078834	-0.00469257525662928	-0.05312497288000537	0.2443282676869269
0.02314564908465545	-0.0311383357307725	-0.09709171435953139	0.1101475684827804
-0.004564228610637906	-0.02739618912916863	-0.0359094446881907	-0.09711887232853852
-0.01748499396944561	-0.01323331425675282	0.005718878005227848	-0.3022662202436605
0.008224134275838053	0.006743660442015428	0.06339361839446016	-0.3314994688365029
-0.004084396893899733	0.0205393966235173	0.1372594063498431	-0.1778949321738846
-0.02017331717083407	0.001050384577278997	0.1657107724999656	-0.08897429383308489
0.004101423414787868	-0.02455709401718786	0.07084379883269758	-0.07027274347161105
0.007682004345672754	-0.02451365383052849	0.04943667266240331	-0.07041768652396171
0.001391228721669487	-0.02935057408610963	0.03215291711962826	-0.05714911915571423
-0.0169406349915581	-0.02145535040255783	-0.01222286950701598	-0.02835664001205276
-0.03851453001667952	-0.007989565277429576	-0.05275850804370599	-0.03671113610595094
-0.01225648195198723	-0.002063989641321507	-0.02742212564517681	-0.03392977562150623
-0.02269326571433409	-0.01184824165885425	0.06059249366561066	-0.003042616834697674
-0.02912190780318666	-0.009560079833872942	0.08469978101812578	0.01449526636009551
-0.0009306683686634953	0.004345594073588527	0.0505257335887128	0.01145589334557412
0.009471809282559342	-0.005035958105620564	0.02152732832618666	0.02774884229800781
0.009298059009922598	-0.008050570368383799	-0.03686556908060681	0.02951816618203248
-0.0007397832874961517	-0.010777353111475	-0.05161344778707209	0.06231947196969588
0.004255335552262911	0.003553041552480593	-0.0232693603002779	0.0584602196432645
0.008368371993132234	0.02395557815577335	-0.02824317099828554	0.04391209052219941
0.0008659298527846078	0.01665768100281315	-0.01150397654565566	0.0351040983740489
0.006998287999140597	0.01970539782537062	0.08547480350473563	0.05793715039971264
0.01415388912378286	0.02991068890797029	0.1188991658886199	0.03438646408581663
0.01523893728856191	0.02804554739457699	0.1009941858944159	0.03920221547135098
-0.001127918821379467	0.0418384311853951	0.04441709962399185	0.03685388614244306
-0.006558087888411623	0.01542556325479526	0.01846169267664006	-0.0159658166074985
-0.006986239988603922	-0.01410211665518028	-0.0258430453109111	-0.07976593867946051
-0.03308051367313983	-0.02471773798329216	-0.05631896225506719	-0.06160052344843826
-0.02908639407834522	-0.0306845821513631	-0.114849481864709	-0.01009233639635648
-0.01155789718876084	-0.02042846912349176	-0.1379805003258289	0.007777048016728
-0.002834435361558073	-0.03663476686224403	-0.1276207780341717	-0.02603702496427418
-0.008343362326693325	-0.02070608984945395	-0.06974513669877785	0.01454955458607033
0.01888080882959315	0.02918606953732498	-0.05752034331430661	0.01034910852446899
0.02428191590712135	0.07641854119823648	-0.0634831820342342	-0.00694605310983937
0.02123888628934006	0.07452911558823332	-0.01514934276540723	0.009227024676263795
0.02213943629589019	0.03852550263660001	0.0402315274669269	0.05764356016204748
-0.0004807344773397722	0.01199703030718625	0.04452337193433248	0.1504020924519019
-0.0247254645541365	0.01432433026159945	0.001362062304811582	0.0704068797885968
-0.01712747875519179	0.007803514951426142	-0.0003323328771189585	0.04164164813013833
-0.003713400372932819	-0.0002852938075895393	0.1138008327849079	0.04835082367659704
-0.03282014144214129	-0.0094155603368908	0.05946534093001749	0.005228181440023456
-0.02453428666160206	-0.02304374142225557	-0.005304595642085127	-0.002493626629270078
-0.008459692854227919	-0.03039811717555949	-0.05751955059445889	-0.02042071960842544
0.005893467383003555	-0.02407321252771111	-0.024248462124785	-0.01208942551403056
0.01787138082560916	-0.01006462747809762	0.02182077962109427	0.008562121873997987
0.0194318802867398	-0.002147641072676443	0.01396174993433574	0.002899152949965736
0.01415753124465325	-0.002135819016161672	-0.03272936889176909	0.01074220221022686
0.008420773220918614	-0.0001129037809242112	-0.05072974327685774	0.01085614373479351
0.005256171330540498	0.0001255516329200111	-0.01637182029193911	0.05036230555988128
-0.01370243623935986	0.00461453757091823	-0.004512195077036291	0.01723593689450212
-0.0200457398168427	0.000647304369252874	-0.01730031920122332	-0.05053911621841789
-0.0192583153022295	-0.01093663765028817	-0.03344009989349051	-0.06428701430856684
-0.01469525635626353	-0.01360480353338094	-0.02684892524316084	-0.07298025749223368
-0.0218827954439647	-0.02352119609245944	-0.02893824428256992	-0.04272819875354122
-0.01665358612527009	-0.03462460775936114	0.007585095794678406	0.09395433876136766
-0.02446879623295935	-0.03418397767029004	0.03852118813977642	0.01771942631553618
-0.01585278962485679	-0.03018703560635471	0.08272465311001083	-0.04685818439107819
-0.004753862182077014	-0.03001045811254602	0.09618589420671388	-0.08766492004968808
-0.0009434040574159486	-0.01534294621603437	0.005085228522514113	-0.05987910773509102
0.02580659159107368	0.01162006843253097	0.04206960755491222	-0.01806545189445711
0.04591449468505228	0.06290894771270167	0.06665900771546993	0.00884680019682213
0.03030986653012345	0.1005650846671065	-0.0009658682070294868	-0.0229575281504753
0.01785292034832198	0.045194670090772	0.008054977965324736	-0.1095247654685941
0.03469262977432262	-0.005328499891363673	-0.04240477223464423	-0.1796273731149122
0.02935845383970929	0.002786391510903273	-0.02881970718434074	-0.07734548322840452
0.01940886074214103	-0.01337728923347136	0.003772331379009984	-0.000626870920721603
0.009878226108108889	-0.01908384022026169	0.03619526743424024	0.0017019761798515
0.01830876357032767	-0.01706824474629244	0.06798652765557078	0.03251749833703213
0.01607083446559593	-0.009139725906283199	0.01161586548864259	0.06527179877711869
0.001688538590576673	-0.005026358466949973	0.008187006238620478	0.1012507470669127
-0.000482357455091873	-0.007959616714600484	-0.03939635472679409	0.07172315217954151
-0.01560630987306481	-0.002885850869039571	-0.08351365413729175	0.08226124194041201
-0.01820994781135162	0.01743709953624069	-0.06039813695716949	0.0424291142901014
-0.01514817198604445	0.0121899192618233	0.0004845458643904892	0.03037893824840992
-0.0182987826420631	-0.0002235739840278001	-0.04276084930979579	0.06485536597546859
-0.02981035229985476	0.002837597450670265	-0.1183587699852198	0.01768794004834727
-0.04657415862004812	0.006711303795178414	-0.003205466976804949	-0.0331448914284843
-0.03368274582993885	0.007911514463037925	0.005819466987285147	-0.006101629450636369
-0.01592167980281614	0.008786627792483386	-0.009067141980458758	-0.04922676659267085
0.003378838019869506	0.004191329243582773	0.008377029993179588	-0.04300121249524327
0.01581026356318848	0.001052984647531733	0.04685788736422454	0.006478240290126721
0.01521072171656812	-0.004405675451345877	0.09965153674872376	0.07878549037215407
0.02017764937895863	-0.0194116316945445	0.05805863430476645	-0.02550746266018948
0.01342181746288457	-0.02721272857055316	0.04118400460395417	-0.07345870343753257
0.01547106595533606	-0.02490611300648403	0.02831978094279625	-0.04349086159368511
0.01928011885806327	-0.02764024707295249	0.07447190872961297	0.02738829408847059
0.03518137850082148	-0.02302355260577912	0.08927967272258157	0.1213953538747007
0.03506570216442045	1.502963554816076e-05	0.05137386610734021	0.1376079485123916
0.02983946403087773	0.0296080100696325	0.01099539159849439	0.04150395645158654
0.02040599620590145	0.0347750316730693	-0.006376583841460001	-0.03525169705089468
0.00886885658439065	0.02384911613592428	-0.01213663414242699	-0.09667116049955037
0.003722285426276986	0.01682465274954134	-0.01830526111940679	-0.0933904197134561
-0.005385961413394955	0.01335293261278888	-0.05840751748441378	-0.05763273908550168
0.00122644713977227	0.0197627363953534	-0.07318927728591657	0.003851300664446384
0.01211957001568971	0.02790618502483587	-0.04331407140103913	0.04846781266128732
-0.03936668442729929	0.02621993889595874	-0.08827768875704411	0.03453394081551583
-0.03588767284396081	0.0263932260758201	-0.04058631458938273	-0.07735973823267255
-0.004866258441122658	0.02102321896034056	0.03774102905978577	-0.1712888681336608
-0.0005605208821785023	0.0003877003777888456	-0.01105931275526262	-0.1655138647840191
-0.02729120859270715	-0.009582162507115683	0.03971470146483348	-0.02950086965497198
-0.01728483989407049	-0.02611167491106784	0.05792108957467526	0.06149135729340732
-0.0371814022057365	-0.04592615968201378	0.07967191727687478	0.04030475739085977
-0.03023194096893984	-0.04434978971238614	0.06149207048319598	0.004896479939401577
-0.02915043036331849	-0.05536310069538226	-0.00734677658370576	0.02657074983162428
-0.0458040113715648	-0.0761556481533367	-0.06394536161526257	0.01650524408521903
-0.04538579513614893	-0.06924417584122806	-0.05641145015300132	-0.01399016168070328
-0.02811269360422377	-0.04131127604192674	-0.08890879953511338	-0.02295825508239049
-0.01915030001774017	-0.004162895469326532	-0.07659645229634997	0.02403278118293732
0.006873213930677535	-0.01473079973575957	0.04713092568537268	0.1518175283185699
0.01257535019024853	-0.01711455766253542	0.002238945221288627	0.1878727480316235
0.02362342415440708	0.0148697245665419	-0.04333983516294772	0.1236017507523046
0.02735435318648272	0.02293864083643453	-0.07121327964523556	0.02572270192378729
0.03242011920465183	0.02816201976223578	-0.0866340205800902	-0.1468355337608602
0.03837443167324375	0.03821775164032987	-0.03975458089240923	-0.1715642619038781
0.02976822616233289	0.04770008821706338	0.01545802667750945	-0.1006898492303103
0.03704396916450243	0.05238057778512534	0.1041289113612045	0.01433759218470411
0.05216045369443251	0.03851527354109866	0.1570296179678193	0.01948992230472528
0.05629265015034024	0.0233672052490635	0.05775737763431005	0.0413138942816339
0.02349648596320194	0.02200032628792273	0.0099451091579629	0.02716489496011566
0.003300639840957722	0.01284991716838178	0.05462882057586824	0.03350181551622786
-0.0221214525613112	-4.32379714852835e-05	-0.03344190758476855	0.04076194816416304
-0.02143729052464653	-0.006502418937102126	-0.09399209996011845	0.06427651081752007
-0.0206881889925471	-0.01384661800220509	-0.06164591412660142	0.004681794005953103
-0.02906444534781363	-0.01906492964824629	-0.1523129441123676	0.02762589383087488
-0.02658704032282243	-0.01224875852485312	-0.207818549502646	-0.07084786291196464
-0.005353405329923372	-0.001328257416073379	-0.04616043573330802	-0.0407375442103847
0.008927210824726353	-0.00663113541016594	-0.001429026601795856	-0.03020469575252641
0.0358808647185628	-0.0204383382971678	0.1283651661286857	-0.006939243048044713
0.03226119456573202	-0.02607203552916689	0.1318723319474251	0.007818752244169249
0.02487086153587951	-0.02825399090373944	0.07699306542737847	-0.005691871128273574
0.02905776451238982	-0.01088170317560616	0.05368127658460795	-0.02283763272964292
0.02946893338602486	0.01997908121067524	0.02234536648288219	-0.0006422676571413569
-0.005523091897132282	0.009769003369577428	0.00781315028602244	0.03866200994194352
-0.01809438576070621	-0.01396601067567519	0.00343550816184512	0.04639525992842193
-0.01627131964754616	-0.01772754806053388	-0.02390560359714251	0.0897869909572787
-0.0312730963035455	-0.04937359766574254	-0.01790213381700919	0.1560856097353136
-0.05532215023495357	-0.06343421817580758	-0.02529647611997765	0.08770327958969806
-0.06102930192879132	-0.05679485780207252	0.02002732807954735	-0.005148453149309062
-0.05337823908329737	-0.04169213196326934	-0.008050303297971937	-0.04870102626929673
-0.05682435172843671	-0.007260868946476667	-0.03256548459390914	-0.09893244905185559
-0.02775296536192048	0.0403154469779666	0.001449686172350455	-0.06616401362201277
-0.002586844079093183	0.07502171852979338	0.05114103752795351	-0.01668204020731309
0.01310485528511097	0.1315864711510102	0.01955879236574088	0.006499001541269414
0.0122657465324944	0.09993298236664996	0.0243906520355759	-0.1117014381345078
0.01483670401837382	0.0373944785099741	0.01463223485504328	-0.1500650039331387
0.03340130056610737	0.0253203643693458	-0.02593851081036398	-0.1402728831865313
0.0387514777472668	0.03935144113528628	0.02407315707988744	-0.03144469897281146
0.03855335442258887	0.04288754067500986	0.05734386500301215	-0.02478078249102914
0.03925530266713645	0.02516372039204276	0.1122653155388849	0.02948510170037344
0.05495641334577266	0.05001195394670453	0.05299834694440262	0.04899531681525839
0.04902572123004742	0.05306038790475968	-0.008648347679952604	0.08821870034891204
0.03704103332608365	0.0435412585275757	-0.07515242945646941	0.04719122487806481
0.02021156666767325	0.01416553740205938	-0.07455990928395285	-0.02634588173494415
-0.02323685282489724	-0.01221277542924187	-0.0755740617201885	-0.03643364611973159
-0.05840908323819358	-0.02904267518827094	0.01289384271267318	0.008896445671114875
-0.05234796565249648	-0.03884268918641107	0.05634962044096912	-0.01386389874342279
-0.05040121737085578	-0.05827886078268221	0.02806484988466386	-0.04295248095565226
-0.04842454114332743	-0.06679355545584242	0.02299293670925873	-0.006228250055336918
-0.04396172684579217	-0.08049975284937609	0.01122396881908101	0.03829265036679637
-0.04091936911416491	-0.06762705725097823	-0.006050206690649806	0.04493074944234421
-0.008691989260296466	-0.04534272912533974	-0.01512742513070959	0.08334636071513289
0.0134093645556302	-0.02899326055609241	-0.04505028035690743	0.2008706180745514
0.01601617849832901	-0.02435110229272387	-0.1527329249939922	0.1532564414985393
0.02328299027035616	-0.03480927649054422	-0.1198499235041054	0.07143508407977929
0.02803130748992277	0.000418829262772754	-0.05423569998600756	0.01135811687937084
0.01981172895766966	-0.003502777649550876	0.05860984640033901	0.01317631180852313
0.02545221675154989	-0.006118054527550975	0.112796566112468	0.04570661251825271
-0.0002676774262803448	0.004020782600340498	0.04939366512194769	0.04362100265725528
-0.02492436894903396	0.001499707872239027	0.05713280333657357	0.01921090778111036
-0.04276276356057265	-0.0025300711238516	0.06625302499341892	0.04185884297154598
-0.02362297901970798	-0.002576115758190526	0.04957848021582448	-0.04963588883729191
-0.00660457776317561	-0.01047727249707264	0.009866533565037486	-0.1750819009260469
-0.03103031634510466	-0.03538352622743635	0.001353028838035726	-0.1611413320254877
-0.02075750871876905	-0.001437413635283265	0.03040152490960585	-0.09681366117340945
-0.01965733623221152	0.004617755258144208	0.0264965648482104	-0.04695704115782339
-0.01113570426324946	0.008780397438905956	-0.002373149421502341	-0.04001308222927027
-0.00136024319345507	0.02200245423436368	-0.005193401904346391	-0.03202974269281942
0.01346192726197544	0.03356692291090066	-0.01213803535725263	-0.009594808549396233
0.01630653106732486	0.03414781157242987	-0.01646045407840528	-0.006921781800864489
0.0487718482942302	0.0322167661332108	-0.02206715709263957	-0.01542703701520869
0.08085050378497369	0.01674111455076881	-0.01397184328759581	-0.0171792671185758
0.07672279815582643	-0.004616831214786067	-0.000219496295031217	-0.02847600951072123
0.05970816243519193	-0.01345009517835994	-0.02909484136183655	-0.01202354106882107
0.07749485497872791	-0.009683981700537435	-0.07710056948704513	0.02070940531905552
0.07477032723274771	0.00623924586439025	-0.07182077407853506	0.01723881129820328
0.05102309153215798	0.02703165122520193	-0.06391832204916219	0.01326490129777892
0.01617021476286792	0.0187738421000577	-0.08758376779212899	0.0248173842406379
-0.03600750239050281	0.01546421390474139	-0.05530602538967626	-0.003583062748489725
-0.08066397300930676	0.01825757170736221	0.02157719438555975	-0.0523637357453324
-0.0599569262477747	-0.002742280829596369	-4.06692346825733e-05	-0.02347853859053947
-0.0467970581140178	-0.02791335504040276	0.01483082858893932	0.07337524663557496
-0.05420879064757442	-0.03660664380215537	0.04578657545222536	0.1240406008108765
-0.07168549999381213	-0.02833900993759277	0.04750326244523952	0.09436024082029719
-0.03800567435794935	-0.01521857588266934	0.03191029246353656	0.03545252056934537
-0.007606036320590759	0.003797148581754971	0.06672249046796307	-0.07272937884217319
-0.00173730085103104	0.01650632282760536	0.06853185376701613	-0.1339076230790674
0.002990862506394646	0.01003589836150633	0.06151595662705677	-0.125757705514183
0.007305112306665397	0.004208255917749879	0.2107130086132175	-0.03408695181687866
0.0157256633522146	0.006493267209397237	0.1535243490995085	0.001410960656824737
0.015381525951711	-0.005599373634502407	0.03166448466110833	0.06556217566779293
0.02902521470026097	-0.0039516908686007	-0.05077565715547658	0.08818179747596937
0.02427278617275403	-0.01141879016128891	-0.07575808531254404	0.04716651966508081
0.01369815857992641	-0.0208423952121053	-0.04724717539673162	0.004363473156606563
0.02022626201435795	2.667735359144488e-05	-0.01806476089306845	-0.05301529607412413
0.008818577027902468	-0.03437698013676473	0.04183436164840473	-0.06581247351969814
-0.004709433799154052	-0.04369007676587325	0.005715493250814841	-0.03525727066794206
-0.01988015619258314	-0.03442748243578552	-0.08245733805686858	-0.003124254955148124
-0.03208371560297747	-0.02862446090148991	-0.05581134372984375	-0.00603481143644896
-0.01568562541312732	0.01515517184841073	0.002017616959705073	-0.02270939280099225
0.01058953575282031	0.04596176980217125	-0.009709040027024975	-0.03209706018804742
0.004146600786652022	0.05866837315603948	-0.06504644648805449	0.02132661754777827
-0.01811733721550872	0.06871955266847864	-0.1346878586110131	0.102562487503531
-0.01548720449314877	0.0554277383510902	-0.1214814255939429	0.06536493111915091
-0.01305693892988684	0.04404087049794689	-0.08801180793429471	0.1048880190662343
-0.0122172380186267	0.02901356721548348	-0.08476144766644635	0.1074014231228226
0.005662004176508102	0.01755198385592467	-0.1172541219946124	0.01681737284825325
0.008358590319258018	0.01202217866977427	-0.07550033851254145	-0.002334184205761908
0.01628804461121521	0.008385446972132123	-0.03242923713072025	-0.0288895315984619
0.03640704648686822	0.01146949083375039	0.03724889801215831	-0.03102537930012475
0.03713178143094242	0.01733731424626829	0.01963862303905958	-0.02955989871355921
0.01962949301878116	0.03234713839055607	-0.005653443833288673	-0.02579553731807494
0.01728419044711159	0.01827197499210051	0.1160388387023343	0.009794817729691927
0.002805479719817295	0.03086889278133665	0.1271460466951801	0.01334111513796307
-0.004309087709302218	0.02007320232100081	0.082652795059927	-0.0009725352408923756
0.01237792607784727	-0.01150764877789065	0.02469973827654768	-0.03397974084720024
0.01458681802894647	-0.02601412857991129	-0.002001482963411322	-0.03404809930717687
0.0009106316586166291	-0.01851981131024328	-0.06192349169768373	-0.02471722800425501
-0.01618539525450656	-0.02236388417511945	-0.03927456412874349	-0.008513630506068941
-0.01606942114832413	-0.02543323898652951	0.02450596512488603	-0.01593004058962448
-0.005985825727113852	-0.04001013221703505	-0.005448271280704828	-0.04242381999985369
-0.004824753992412706	-0.0394114653348985	0.00346618222913098	-0.03773525842079525
-0.01186780401706958	-0.03185004835990857	0.1000312581376523	0.03959415030826314
-0.04094676392995531	-0.02040838806971947	0.1134494162678707	0.09776803080622287
-0.04770432252935154	-0.01138523009005337	0.01219222062970053	0.1026163784378464
-0.01423809080142851	-0.01508261273142876	0.00434945105784736	0.118166523874464
0.002669758369881732	-0.03314685773284266	0.04455612375401608	-0.05147411572448663
0.01563842188770075	-0.0150625371715273	0.03542641527092957	-0.07883871687139846
-0.0009735833271745777	-0.01350836406366687	0.04422430629810314	0.005822627408151623
-0.02908163821165117	-0.02475579429763371	0.0234755322615254	0.06975201370054346
-0.03935209682306015	-0.02608378169454239	0.04036025464906379	-0.001830459850431091
-0.03470805562797664	-0.02965844229603712	0.025564366278586	-0.06823933047830065
-0.05317443087969437	-0.02705374127337332	-0.0296447997872289	-0.1109592102701173
-0.04104275111319812	-0.02722478167214309	-0.02872158895974282	-0.1110034065903952
-0.01046476164429156	-0.03901917993994732	0.003015115063789551	-0.08549865410166152
-0.0109896036060407	-0.03904676414055579	0.09920312859203677	-0.08284469936876018
0.001908829476379576	-0.05294266783448544	0.08302316017772472	-0.006473683191206467
0.02067900493122522	-0.03644186832682488	0.009674531128074107	0.05211282105978433
0.02878316075402317	-0.008948495463600756	-0.06063483013508611	0.03230799077723925
0.02128097546259942	0.01832276609262156	-0.05671798921418864	-0.0012443822143738
0.03875260560431633	0.03763156398058774	-0.04522628355165125	-0.005331358598391896
0.04348923363996319	0.07279321743042703	-0.04452732793664964	0.005170666453169962
0.0329665112080136	0.07383684723417304	-0.06229010709757617	-0.01169792406774237
0.03353495136103771	0.09672075031187037	-0.02392037715697203	0.01007290723005057
0.02603898827845569	0.0980670801903582	-0.0602405549378363	-0.003746291694503817
0.006233535498350338	0.0582289689417073	-0.06882558475885781	-0.03183354355628826
-0.007992237797160351	0.01014731795215992	-0.05607417103967683	-0.03911320073432815
-0.01249495646547644	-0.009755100025082047	-0.01257720904357646	-0.01245439947134372
0.003001973176148682	-0.0253849276419107	0.06662255854551902	-0.01778429544117982
0.01730049671875323	-0.02517707131861424	0.04209724463641647	-0.01155931164584723
0.01474112006196322	-0.01815810881697544	0.04891474791376193	0.0004204024989786435
0.00835442917524936	-0.03288973855516349	-0.008997852428716027	0.01521095148502831
0.002848588148421354	-0.0314804162564625	-0.06780049947955713	0.02154709901915476
0.01111578654262579	-0.01968512581690673	-0.04703396143508209	0.05197829377157692
0.04384545198099776	0.02472336973914935	-0.02843914295872451	0.05495575097635536
0.04466709387217031	0.07781121967918671	-0.02987420360882937	0.050090270295031
0.005531559780314207	0.05864057162679101	-0.01468182049121486	0.1142306903350638
0.01333361932451301	0.04087234568350763	-0.01024260766412903	0.1464156990954392
0.03329728435996459	0.03060822012215567	-0.04236239467348266	0.01488753638173449
0.04642800663113895	0.0245206011196813	-0.117561464359462	0.033541392008662
0.03895882978649329	0.03073776853009623	-0.08485238098172915	0.05408450989897735
0.01348094977377383	0.01322675560792122	-0.05054284322944971	0.01305463863974116
0.01086640982017734	-0.001666571208069542	0.04801734650895391	-0.07608533538012135
0.0165171778952348	0.002989574576204787	0.03828515639895191	-0.06619415103441144
0.0001163106215376822	-0.0007482110969052958	0.06491373931766606	-0.02681298379586128
-0.06081508998689041	-0.0294118831020065	0.07323816214917772	-0.01121896411691423
-0.05309956827870229	-0.02965647368582102	0.0580515659597174	-0.001686440851450593
-0.03581319000991029	-0.03460111022403574	0.07628688697371422	0.002976218413208534
-0.01770072347390711	-0.03347217120167209	0.08705826222893734	0.01940854585448618
-0.02280975123238622	-0.03635493904777251	0.0747467168091754	0.06004003384586685
-0.04298066508262959	-0.04392365219419933	0.009816352545308431	0.09414502258573877
-0.04809669269783188	-0.03277754039290896	0.0007054592770081615	0.04556498083355128
-0.05419424730730366	-0.02885301922263171	0.04214432236973859	0.04522945577496969
-0.04807194981511538	-0.02721524063364119	0.004522337876220963	-0.0888851448045538
-0.05189074329292292	-0.0416410872871134	-0.07715133009662928	-0.0373646448096162
-0.04709954678531303	-0.02433663168778563	-0.05560128715194192	0.08377141704365597
-0.04165699040657203	-0.008924811714757862	-0.03567600766545276	0.1295758265661081
-0.0449843118307913	-0.006003830186995869	0.004204875988998624	-0.03951119745975729
-0.02271762994993093	0.0003546302747469622	0.08027420851321712	-0.1980284218344014
0.009641113894653049	0.004072510512405801	0.1057475544675885	-0.2646925851168603
0.006505748806239543	-0.009584649964322766	0.04823446220215131	-0.1446505992430787
0.00381217723884814	-0.0008538294668115166	-0.01098995738265078	-0.03482627502514551
0.02089388504105966	0.00342058960393615	-0.02804532205611382	-0.0003356837116004131
0.02859443726589814	0.01016198790836795	0.01465172807628318	-0.0142355119932761
0.02899892784173727	0.0157063598254414	0.04713596598677509	-0.01580176886967876
0.02372513866361781	0.01700283602928234	0.01333717817002676	-0.02973294077193737
0.02203078629363375	0.01993667139706135	-0.03004835276964834	-0.03095856603176855
0.01132374241692202	0.02009941158531984	-0.03667646334119858	-0.0007314447192811632
0.004367031149621493	0.01458207221333286	-0.01766097279589339	0.01440749740999812
0.01478429955215585	0.005886457378311751	0.02685062242732134	0.008726891517894467
0.01367774554821866	0.02710405944409128	-0.02366016692679665	0.02085489995192484
-0.01136178022634222	0.01211116881322651	-0.07564195712511131	0.009642314283763128
-0.03174973242207805	-0.01557620426461709	-0.1808305471447495	0.003209971906276602
-0.02970586974835795	-0.03133106483299873	-0.1383542187461982	-0.02994189491001338
-0.0169157349096857	-0.05745989492748031	0.06264330194836054	-0.03238645289466913
-0.002358189775844421	-0.05932114593983397	0.1228479816896558	-0.01279243301286433
0.009913346777337307	-0.05637189537125984	0.04359636982804649	0.03851976463171339
0.02370958747253167	-0.05497009988424519	0.03930788839057835	0.1153908343706273
0.01625868993169925	-0.03711674055826051	0.06061417491946938	0.06765370093464182
0.03474353536568741	0.00697999226970235	0.003086761516301698	0.08491021000793338
0.05487064833551464	0.07047826508313282	-0.05761196395820048	0.08102977582049682
0.04326241182130001	0.09950291425618024	-0.003110996941993567	0.08266976658402947
0.02851593146064981	0.1170355821464229	0.07936176789821728	0.06679489012189992
0.04068342865029662	0.0744033710951484	0.039347701542264	-0.006781852696878542
0.03301966866498519	0.03085796876791568	-0.03513507251047143	0.01371935003090043
0.02453327609767417	0.006402885352535865	-0.009322191168357028	-0.001407473297800102
0.01281522650794226	-0.004060290944990971	0.01937368156953359	-0.006771412992157496
0.001046006178949504	0.00350019457986786	0.01574749251110417	0.01788285209471148
-0.0008447905304252361	0.02236440702729579	0.08509204028948961	-0.01052131629097704
-0.006646397955249197	0.01124186207263865	0.107190030859919	-0.03418068540406895
-0.01607123211540514	-0.01246993221614438	0.02867790675632143	-0.09493610466214582
-0.01138803039232444	-0.0296109628085809	-0.05926723537330637	-0.1020833545976884
-0.01993879769294129	-0.03497316140705788	-0.07293888642611986	-0.01596922412946249
-0.00324584735595144	-0.0270561164450936	-0.04869771959222237	0.04610236119470156
0.006192368644896164	-0.02380319846944061	-0.07145174574902248	0.04683878808800179
0.01632182805904875	-0.03394387639612378	-0.07609786315853045	0.0318522121987493
0.02554624246849809	-0.02945083722697602	-0.04563314820351218	0.01574208787679396
0.04776455224015228	-0.0262218080285815	0.00870964941923098	0.01642616177929799
0.03252714064669369	0.005924114862211057	0.02959505905416744	-0.0001699032225775718
0.0291067749661974	0.02738541523684954	-0.1090341431115143	0.01755832877883827
0.01708441288262094	0.03294796366551615	-0.07636148217550193	0.03102953249765942
0.01442169729665938	0.0366319979784103	-0.005377929958827934	-0.01853813623031467
0.009314166409053129	0.02888288187806092	0.01433225452766394	-0.05230757548218005
-0.02343219780225383	0.03629382434988389	0.09229633727352438	-0.05606620312937435
-0.04908286131188597	0.04447714567453708	0.07955739114337526	-0.03237608841969928
-0.04663607296336534	0.04508055713378243	0.02273875832360122	-0.009158705288670422
-0.03137017033994396	-0.00133114122149206	-0.09079134879209554	0.05174528467723531
-0.02543814886254005	-0.06040898501952769	-0.07578788563246039	0.01862863255937773
-0.01308027429979224	-0.0689163106413989	-0.04996742070090573	0.01836024290514585
-0.01211070454025251	-0.04842748450415038	-0.03553722859306532	0.03661396878701507
-0.007178424587656129	-0.03408751584701995	-0.00448820642352897	0.007926094095864734
-0.01391583504885748	-0.02414858708583806	0.1108085054261481	0.01513760149594913
-0.02989047983644903	-0.01280558201127925	0.05438194347274544	0.003154902918756414
-0.03208529777895013	-0.008520855864454733	-0.06419347865850517	-0.05548509540826893
-0.0307989721503167	-0.01258673715685116	-0.09764524667440765	-0.04844029958755908
-0.02456112129504388	0.007416640378392275	-0.02069251643478739	-0.03667341545436169
-0.02526316283186497	0.03371491979811742	-0.02562092985923641	-0.0649896567816189
-0.01202797270011489	0.03935231863572527	0.09851495555345596	-0.02008682435829907
0.025806979259312	0.05322946801139986	0.08761567940961773	-0.008076906489592627
0.02005115649493604	0.05161304928838326	0.0890753442009645	-0.002882136467324245
0.00664414394560812	0.02153910389667055	-0.0001385314284376376	-0.01571844517630265
-0.007972385414080109	0.008349516895697223	-0.03879278228338073	0.005164992060792199
-0.02433633498528391	-0.02373345435179511	-0.09136866399549003	0.04415309705021859
-0.009287799980627159	-0.02428014709814524	-0.08603862944017428	0.04447805409093631
-0.002922267631903875	-0.01991113787436323	-0.0376628017944679	0.03729614040681423
0.001312876374674106	-0.02583082755194695	-0.01260504454832849	-0.01425412687276263
-0.03579547439057593	-0.01849216231872209	0.08170147475674172	-0.04792576042669946
-0.03708636058548206	-0.008607442476219513	0.1018830323158693	0.01892858775706961
-0.009916094117441734	-0.001260528060255535	0.1017301623401294	-0.004859987025969553
0.01411414635651841	-0.006650462363686265	0.03312653766626743	-0.07119618954892359
0.02098271363139659	-0.01355464520508245	0.01015765795463823	-0.08969753623718749
0.01550394731622167	0.008456886518279642	0.006328530001075138	-0.1202959215811424
0.02106145046263033	0.0138091043048136	0.005930368677802111	-0.1053150395740965
9.19051438170275e-05	0.01667562714781721	0.06415678887067337	0.02062680789171754
0.00920854412900971	0.01680287221700805	0.01179893350962683	0.2327770963739892
0.009263787609265581	0.0133229579108858	-0.03595771908151039	0.1058062928683939
-0.02172121545092429	0.007865845327233757	-0.05224794012626147	0.04486478338239609
-0.02085992429313046	-0.002701721300426965	-0.1230638619876766	0.1488503843537432
0.008200399484893629	-0.01299927406107419	-0.07108325986176892	0.1290404746485178
0.005774450078851914	-0.02181754248511337	0.01125611251341025	0.03536494644519728
-0.01291594989991784	-0.02853864274147735	-0.01562645320272207	-0.1060081454954461
-0.03137123780775641	-0.04491447013471656	0.004482250202218326	-0.1089254078750496
-0.03199234730854034	-0.03996417933831251	0.120920311140231	-0.04006817309601479
0.007632453008950343	-0.002091905999743316	0.06925797021358819	0.03642642642740711
0.02696392510067586	-0.004682440329373359	0.009760770704641202	0.03204893286761012
0.04000165075945959	0.003017343053043873	-0.01237006080572036	-0.03931285238159712
0.04674162524574125	0.01649352786477246	0.02835532097838179	-0.01071857010726867
0.03391996376459214	0.01170709724881508	0.02497180125005219	-0.009505028574888849
0.03978054280581983	0.01577757597367186	-0.0523394619299617	-0.02393774500164438
0.029028811120272	0.008940468448150088	-0.02015105610240023	-0.04035337672532421
0.02129297135788501	0.002337749543976859	0.01819676319105672	-0.06971520331790024
0.02145434348551926	-0.00788702600959067	-0.01196423099152908	-0.09596629450853907
0.01868744658181878	-0.004343693369552375	0.002212143215018648	-0.1020986145828613
0.01604867821427707	0.003309280049951294	0.03386727961226335	-0.05341146486795716
0.003991703443562639	0.004888342330966179	0.03239563952749006	-0.02799903178704327
-0.009146892486139169	0.005752107856159694	0.05566377735472662	0.05386586286490313
-0.04774887136328005	0.01818623989583342	0.01936664911674367	0.008339816143113325
-0.03353270271676472	0.02459382053755437	0.001583063006399683	-0.02667800167759826
-0.02102698053885065	0.004095545326371229	0.006228443749868857	0.03273069838599364
-0.009209809692083654	-0.01553060995686644	-0.02417901670204668	0.08839683742328167
-0.005173772185393204	-0.01621301700948803	-0.009224336558379334	0.0446323520756195
0.004159566127818119	-0.008773903808486288	-0.04967484697004843	0.007702183191197636
0.02264482496792757	0.001564362143556192	-0.06749143672498682	-0.0142767977825297
0.02306053578206395	0.001070662516574436	-0.07790271742015745	-0.0662074442671603
0.01977497002055743	0.008477782983226292	-0.09921563846800886	-0.04059709129888214
0.01727919950491797	0.002196107437516169	-0.09269782820877853	0.002981452275063417
0.01925840471513647	-0.01005722249701636	-0.05282653758859143	0.01211214109055863
0.01417357409673453	-0.02285446098063511	0.02911532040976741	0.005613239399770294
0.0349992046690644	-0.003773487379944548	0.1129370502954255	0.03094120463885013
0.02204899467728474	-0.003312248955405024	0.147632087442311	0.07853610608943787
-0.02066626678796802	-0.01187729134555674	0.08552059181559368	-0.005888564341640827
-0.02729462387635662	-0.01644334664090056	0.06450497063721863	0.01669254596991112
-0.02025876803819502	-0.009915724490861776	0.002514103820705705	0.01268002164770834
-0.01972130111254933	0.009015548022417851	-0.04633232864947165	0.03751868706431889
-0.01586326985569677	0.00593444434390535	-0.05548580909795683	0.06448966997167926
-0.006273528206220482	-0.007427659275105875	-0.04250649781992042	0.08579358749958611
-0.01724902542169671	-0.002548163632409834	-0.03764217446382932	0.0234798156154093
-0.006484550473236262	0.009615389846798465	-0.002504851734227832	0.03852561163155118
0.01086903270830912	0.01739380694046438	0.01128524765249812	0.04341619736772076
0.007481947545828612	0.04332120918529802	-0.05156337502698601	0.04036520135657153
0.006725660060245144	0.04713655908724131	-0.05255181342814453	0.03150537783611412
0.007051998724732387	0.03402147641878193	0.00314838034944082	-0.01541943388896204
0.003336984857271442	0.05315955324438253	-0.005194380717189021	-0.06494635214696881
-0.03366324003764541	0.04617892404057873	-0.01492334471360976	0.02225891328576811
-0.03924292764701721	0.02517011243666793	-0.005080407381230644	0.09031082360511918
-0.01416255605656389	0.03605690365584464	-0.04158648082690836	0.0639459246300683
-0.02895662310173804	0.01781257586149497	0.02675858712558365	0.01519914027188425
-0.04515074318016278	-0.008845857144566109	0.08298244577469585	-0.03353727717926937
-0.04113185798695646	-0.02886067187948415	0.001651132774862346	-0.06834184560751817
-0.03679286500655835	-0.06198384943160654	-0.03396675851235254	-0.06748045673324635
-0.01524627592665274	-0.0563595813232954	-0.005826972389976519	0.03488228249736691
-0.008110064304930824	-0.05104342295529041	0.005783847914869327	0.07495336901045901
0.003602189021908384	-0.04866306718813044	0.0191868134166734	0.03512134841420092
0.01567480901096906	-0.02994924998450355	0.1136822196279787	-0.02163670062300205
0.01666747951199572	0.003130774338981048	0.04089979440176297	-0.02257736745573153
0.001676462681309614	0.005907106258492212	-0.04711844129629252	-0.02592846922027635
0.01078568687538909	0.01112972493969732	-0.0661421363404307	-0.02829261877269932
0.01961356040300491	0.01829760956368036	-0.05335509981614613	-0.05850841334556944
0.02963110339453357	0.03397896006247151	-0.008727818464730685	-0.04418512369528955
0.02212108705850094	0.008013631126506035	0.002726326720921296	-0.01355469051632038
0.02531422542344831	-0.01333132846136338	0.04156579649252692	0.07775331256584415
0.02495700923007562	-0.01048627152264611	0.06056907467485109	0.08535490231757434
0.01655054786224985	-0.02277466096944565	-0.02488602475378649	0.05302376512222267
0.009954635058052497	-0.02895677884392948	0.004379471004601757	0.01754782652500214
0.0110980964976939	0.002511497681368867	0.089119853597444	0.02219468423411492
0.01958950864023201	0.03953800427603918	0.1562837971971832	0.05681615355124703
0.01591499648239279	0.03605000764374056	0.1104305666971694	0.01932782739951142
0.0127275217565467	0.01777399884380254	0.01394051035068688	-0.08635922578017184
0.01713185427990532	0.01454720606487726	-0.02537906988474743	-0.1854582307490961
0.03718128177425083	0.02926179463844976	-0.05425613547843857	-0.1895415529316412
0.04066309166812092	0.0120239517412837	-0.06232437283267417	-0.16115874445541
0.01300143424653325	0.001757480046511036	-0.02619929843797631	-0.08346143585792741
0.02532974805261784	0.008976998396877895	-0.0004486013197058216	-0.05151207861956652
0.01618143451203503	-0.005253012429031992	-0.05460787652347047	-0.07591741811975912
-0.01433356966281585	-0.008728197671354051	-0.066079375177602	-0.07385310199653621
0.001303859124717857	0.004030140955007242	-0.03961858662222244	-0.01082786244769054
0.02033340314320789	0.006786080113920524	0.01002517649034725	0.02907066064581778
0.01061888688960031	-0.002284993409695599	0.02702930466511107	0.04204795579260822
0.007766238827299107	0.01047641776850024	0.03617081198919046	0.05890475849067353
-0.01945805739728227	-0.003587080466607451	0.0130968701343553	0.05029995606008281
-0.04278491986710896	-0.01135037831819883	-0.1019047451589179	0.08556721523811192
-0.04967677912312921	-0.01811078774293567	-0.08714468283964567	0.07331631402601399
-0.02421073927724865	-0.01057197038827323	-0.07272249166201429	0.01025402926655812
-0.03086029964896391	-0.01366918025501601	-0.01756607158255649	-0.07819317610433474
-0.05546960087186167	-0.03488285776244616	0.006002730086175191	-0.0695123052202988
-0.06889445809697403	-0.05623220302425761	0.008781740538415924	-0.0316346410888331
-0.04587172540870491	-0.05547577088384674	0.01192533508503084	-0.03512342387416802
-0.03388093254059815	-0.05049457474047391	-0.07598787860097278	-0.04514164100805265
-0.01202782748016502	-0.04039942563240021	-0.07415286901326924	0.000186036423967438
0.002460112355405429	-0.02478716827432624	-0.001551289931898201	0.0005809659564883752
-0.006083558858882829	-0.02037053538822315	-0.02818687690082493	0.02147694607343814
-0.004637054662320199	-0.02266507000274911	-0.03606276640142182	0.09588724844270954
0.003462940120969136	-0.01017506714036148	0.001251673073275932	0.1405195823502998
-0.0007325703170134969	-0.002093784906321706	0.05348854691110869	0.0875082039839478
-0.02940034692984437	-0.01145950984740051	0.1185080503250837	-0.04260899371625514
-0.03902343595415153	-0.02042605626574066	0.09144458570705324	-0.1403276969226743
-0.01077892245433434	-0.02234093678726241	0.1242404009165827	-0.1169809195509112
-0.03867362431788335	-0.01995973972700643	0.1094824461027533	-0.05292699010018
-0.0398452438900752	-0.003557182769613284	-0.05330019804627917	0.07601895411593187
-0.01775912176249527	0.002757096539994157	-0.06216495321956116	0.04905219827214856
0.0108347657183731	0.01477009091116117	-0.02921608315455781	0.04664784163826845
0.02419481066379512	0.04147890610444446	0.03479239571761672	0.03762101764625566
0.01922236814006628	0.0416888239540007	0.06412964834028431	0.02923171039779767
0.01988011045544157	0.07025620646744367	0.05721873500046571	0.03080452680826411
0.01035917165716788	0.06774240428947628	0.03602540031667246	0.02689686632332573
-0.004566960002392083	0.04509034533026679	0.00161465977550147	-0.02637267563288448
0.01587798288022885	0.03763786190311504	-0.04100651551802821	-0.06510626418883103
0.01575524487159163	0.04969210683139617	-0.05884544775726708	-0.03666675661830873
0.02948976391296629	0.03552612054119045	0.02774506291867678	-0.007136783899244815
0.03566151902291341	0.02482640172266791	0.01119725948659122	0.02945505955660891
0.03935864355723381	0.02368409458809678	-0.0611800413817437	0.112598691316519
0.05349625942729477	0.02431329699823303	-0.1054809506087827	0.137365577532053
0.03311057096917985	0.02554496105354128	-0.03965285056637469	0.06115372122512829
0.04176648919444547	0.02554238753817017	0.04867565714934944	0.02705577257955655
0.04852204765262934	0.01974454439978882	0.01047280228483594	0.01473434246898277
0.05668393799705732	0.02055096897654516	0.002174029859922454	0.01845581564145464
0.03771546109920645	0.002508962140505374	0.02854572601006612	0.003899493026243018
0.02483706116757331	-0.02055102009287828	-0.05051756469978078	0.002515687882704206
-0.001546153982942972	-0.04116467382206235	-0.06983589674960242	0.007371417290353807
-0.004828751232925477	-0.04557370459164519	-0.08295508357212401	0.0381944651333187
-0.001133463396017032	-0.03116390005199101	-0.02818326907880482	0.07497545056419821
-0.002599588819851749	-0.02147212314470717	0.07982659613820922	0.06567704949028423
0.02503360546407207	0.01550365670071964	0.1065752096833526	0.02096907597418809
0.02502545608690473	0.02593204615376094	0.07586208903075187	-0.0009838821229816472
0.01938647288167654	0.03046031301481033	0.01530624322169059	-0.04091687304646342
0.0125107796315736	0.01715220586102273	0.003276862384476714	-0.05980319749981754
0.004809881085578767	-0.007767138889018763	0.005233179889368687	-0.04226251788665052
-0.0009729598632466918	-0.0165628710183192	0.0009973867295058735	-0.01083856756743196
-0.000687341079214756	-0.003631241189850273	-0.01063115975621198	0.008002054667579778
0.0002554148990650949	0.002843756574862791	-0.02527658065845985	0.01005160111261819
-0.008011938608528668	-0.02369097628594566	-0.01147459782197151	-0.0009081722540688739
-0.01591232031023728	-0.03243271293493361	-0.001895467168533604	0.002836989622158158
-0.01932959582711036	-0.02424442257702105	-0.0200699413652883	-0.04940694807760484
-0.02737546823573783	-0.02285190731516303	-0.02488352193304999	-0.09632585366080003
-0.03535123894109792	-0.02810947535568337	-0.04599138690212262	-0.0886777590462518
-0.04532589477345928	-0.04355890434712278	-0.07620106449523235	-0.04441369425887148
-0.04452293410624383	-0.05018663875884648	-0.04407152887631144	-0.02900682548482409
-0.03442026039456994	-0.04387580390096083	-0.01335616520116292	-0.003223343030791906
-0.02817084619432303	-0.02918315825173765	0.1654608757566139	0.003535069049393567
-0.01847348359377911	-0.01058392672818564	0.08597103936482996	0.02753350994295853
-0.0005713911409852173	-0.01061341928125535	0.03308074670366089	0.008977339992936907
0.003013393158620974	-0.01466322566122808	0.04007420625406407	-0.002395107170780627
0.006601245919043277	-0.009569078516334067	-0.01527088208706505	-0.01247793876398076
0.003571779629919966	-0.0006255303793781058	-0.0559734169891519	-0.03115602645696867
0.01574078960890319	0.0223876714387875	-0.05736750330445346	-0.02252210392139579
0.009347319277182464	0.0441585276165923	-0.003144871016116238	0.02857535482351174
0.0108266981302426	0.04125924393649567	0.01318844455585326	0.04972681503158883
0.006459082338290905	0.0243768883764927	0.006687585130914385	0.07324952264137979
0.009726421362859344	0.000661010625176332	-0.03781803822125701	0.04794127494059319
-0.006386329106969229	-0.006291009802824645	0.008350502487607422	0.02954008236227024
-0.02566887854744891	-0.01386095171191827	0.03743202391141218	0.01891675007061111
-0.02517865509705317	-0.01782369881050497	0.04379334826993953	0.007043585509096306
-0.02610855402077908	-0.02303522578329286	0.07075401095186463	-0.01042416565752974
-0.03174472117261378	-0.04063818573892634	0.07026865161613727	-0.06193162292779993
-0.03427364363433786	-0.03493018306927131	-0.00968687711132624	-0.06793651787835005
-0.02478643554549764	-0.01645227491725998	-0.07955997001115617	-0.02969058138012187
-0.02113801090189817	0.004957459001691957	-0.09739384728655859	-0.02931775874834215
-0.008947821059343622	0.0180882607663571	-0.07164785496964396	-0.05853849294082336
0.007302148887923399	0.05372814398991638	-0.05226324608436246	-0.1168009073442623
0.01326660970382195	0.06706732497618098	-0.05683106882785447	-0.126440051699949
-0.00625100323695383	0.06106400120529515	-0.04866431240335178	-0.04915498831039779
-0.0004007146070267803	0.04286451355517586	-0.006757910733747155	0.01313816298845437
0.01693056117252482	0.02490274711190318	0.02362739140859035	0.01777494279945782
0.01345219811630196	0.03373820604932842	0.03356275510500595	0.02154290729092797
0.01740226356035886	0.04775777808324925	0.06046798312975567	0.1243908948512704
0.00929316596533248	0.05385431910920019	0.05346251288651514	0.1171972706517388
-0.02906257441563732	0.0346140490431492	-0.004298389420435525	0.07533666013206432
-0.03348631139686742	0.02564237668334956	-0.02130703159451768	0.02066133245354553
-0.01849433579145301	0.01031011337637667	0.02416631477384042	-0.07711032735195086
-0.009168395114220906	-0.01616544875276654	-0.0234241133801021	-0.06574212417967622
0.001431142045721013	-0.02012577712009453	-0.04604592569317931	-0.005237485923827482
0.001178340689103306	-0.02617839890149523	-0.05612023697792252	-0.001012102430124672
-0.0006487307356655133	-0.03373304974838948	-0.0216455739327119	-0.03449208966110771
0.008524902022808348	-0.02306955978272481	0.06983778073978655	-0.04504772993068711
0.004634844300679794	-0.009119336841623461	0.1279415990815478	0.01090552739354575
-0.003492141067074935	-0.02091200817259096	0.05335878575415186	0.09499533746586208
-0.01688867533967805	-0.02700181060045082	0.03544189399319027	0.1037480143288194
0.002990906027464935	-0.02972971487035432	0.03287796365971393	0.1546832525249633
0.0373078933430179	-0.01001680740125916	-0.009544318879910077	0.1106450099347842
0.05977345107649295	-0.005105762979476509	-0.02072259850391982	-0.03725223603899869
0.06517168989303747	-0.006746080793540305	-0.01782692047894414	-0.02261162562941758
0.0709272502942111	0.006192352695088895	-0.04253482796928251	0.028110231220522
0.05688168973924475	0.006003692105314619	-0.002128638077797152	0.001397164361167585
0.01231466528131596	-0.02046166217239051	0.09754408988585227	-0.01699531255988081
-0.01211556024718566	-0.007497457531003665	0.07675626604942086	-0.06812070331203061
-0.006018749873977585	-0.003035694946595619	0.04436804950893782	-0.06433736162830102
-0.0136442823237795	-0.003771538446537133	0.06657258478975954	-0.0813449531476549
-0.04096895600256812	-0.002593400939618913	0.03879246857445753	-0.1068400460100077
-0.04086650912122535	0.01187930883981553	0.01951555973703901	-0.1536426738861074
-0.02071631469730166	0.02597283726720253	-0.05387016194203901	-0.03844135342990759
-0.002179821871906539	0.01092898898698139	-0.06957403014040721	0.03772598615173072
0.02578125140929531	0.006483604880322	-0.04301828181095961	0.002059898809534111
0.01861786932210845	0.008078357840110609	-0.0357076542370002	-0.0108829193912434
-0.01115361105945128	-0.01100717180346717	-0.02412882170757057	-0.0243517545224499
-0.02956429403403911	-0.02491107737860933	0.01697880884677814	-0.03947429174682616
-0.00427619262990513	-0.0271700410623753	-0.004949895325258146	0.009637061152779508
0.02155278733759654	-0.03130503027549679	-0.06066859941682622	0.0001454368771823291
0.03723819815957944	-0.01630589025487984	-0.1171433060090852	-0.01950236880390516
0.04971730419326199	0.004998010007223747	-0.02914848688520988	0.01892326766662718
0.03688613466978944	-0.0008077722422492366	-0.09166843090853552	0.05123450822127428
0.01132109509444864	-0.00598455703536639	-0.0762669847082757	0.0813890559821116
-0.00789511310487577	-0.02188942450457579	-0.005881478997754359	0.08046351800815188
-0.0236057596180242	-0.03789839650279856	-0.01546182265393184	0.05923349970915208
-0.04811686417766667	-0.0383118464474516	0.02275467675961423	0.03028424087069229
-0.04748168049609979	-0.0449492521638883	0.01202096421808943	0.02730034506997219
-0.01908497765526992	-0.0304925197100683	-0.02193248946261091	0.03529918862631496
-0.005660899422918611	-0.01558373415003145	-0.003176558363160635	0.05917071986944324
0.005495373379413382	-0.01690260149034403	0.01730637259536107	0.07232295572963021
0.01661679922795892	0.01223180564397526	-0.01282481210834378	0.05258525126650991
0.004213896274891278	0.03050686891002371	-0.005387447765409163	-0.02536314756053027
-0.001962159245717766	0.0272630577734625	-0.0627663864665086	-0.1035231397914998
-0.007592319608766818	0.02467100557483004	0.01140345793312866	-0.1317551551270972
0.004808904317394382	0.02787395241737394	0.132145389673693	-0.08081817723333926
0.02257419657864697	0.02551742141334562	0.1253448568705564	-0.02949721324185452
0.01258461327164253	0.01755522132827139	0.10455683980818	-0.00767933132465625
0.009972256254665855	0.005018124769630682	0.03407087673876943	0.04717172687370431
0.0227268817500137	0.01658237704447195	0.01470353264848286	0.0814873334852156
0.02552331488367957	0.01108914281142928	0.02568368664438377	0.1482456031862555
0.006810874206739062	0.02469092952434456	0.01955290898790635	0.1322718660034876
-0.002210762875077139	0.02356616417800808	0.03826680161230373	0.07185548992956568
-0.01850458422985847	-0.001043985094965594	0.04250268842550455	0.02962365740493244
-0.04562987078598017	-0.01146499978660721	0.0250987787485171	0.006375701339902573
-0.05121689729150409	-0.03013027388602192	0.002777264524313532	0.01863147068327436
-0.04780072018251277	-0.04448194831668898	-0.125200071236975	-0.05662665838832968
0.0132201090447279	-0.01922544049285443	-0.2355823427415226	-0.04260295622765264
0.02516026103165219	-0.005008937293861105	-0.2678887667966569	-0.01189401984946322
-0.001696373701980816	0.007347679624747512	-0.2074304315892609	-0.00934608644803395
0.001235621477370909	0.03660482833267992	-0.05254808085456684	-0.06565041172136388
0.009857055471414928	0.03961128799487603	0.08979459413507729	-0.1049582171260877
0.06069670669159862	0.04961619784903271	0.1731320801403426	-0.06444948785627017
0.03740250651417263	0.05243201829340107	0.1834423123190492	0.03598411939879917
-0.004102522856969749	0.04482591175611585	0.1193687356065603	0.05460361547198435
-0.01435933157491944	0.03693933678172145	-0.008055238585484811	-0.007850197870761071
-0.01591583920343058	0.03826549901732498	0.01980863907679609	-0.002414624039029944
-0.02690061543280587	0.03288732032465393	0.03358597675442049	0.02934510055038761
-0.03718695579870564	0.01462936915018824	0.03621567854499266	0.01923214934654131
-0.04169074814742783	-0.003825150520872406	0.04550530778238021	-0.004274746338242831
-0.04704313941271179	-0.01561022012566717	0.0536799615812947	-0.01349690703857769
-0.0627941690971594	-0.03749096482767382	0.03633297545353044	-0.02513727044678649
-0.03940366032600925	-0.05055512770315899	0.0221875505220632	-0.0576449565717596
0.006593885668587591	-0.07222644776880355	0.0310336046192297	-0.06446963592686218
0.02337836100482988	-0.08205211130908764	0.05364029952532204	-0.08939664013043928
0.02088802886609372	-0.07225173901872178	0.01917595609008123	-0.1190350045653764
0.01586295101118077	-0.04728822138408065	-0.008177757466732162	-0.05302361198420755
0.0234451947087781	-0.003866105945477151	-0.02817861130809246	0.04094575399958356
0.01050546514999721	0.02310819331477854	-0.04840497940912063	0.004403000129812797
-0.003526946715899876	0.03433900302931434	-0.07300974794273157	0.03154786308059791
-0.004094995869269545	0.02890980761481604	-0.06976876220827774	0.0730013142197386
-0.01005590529747815	0.04985887331512372	-0.05132243583027673	-0.00151621367733767
-0.01754123310120579	0.06053676105593923	-0.02143862052415797	0.01420935058334493
0.004185387035723196	0.0307277403492427	0.03017612568529573	0.03011886386643732
0.006276984178835483	0.01141048408181321	-0.01397157546694448	0.01498465804660076
-0.009370675640999986	0.003702333671291906	-0.04040356401542185	0.0007609508654711872
-0.01727874544946695	-0.003756259575353507	-0.02130509575520606	-0.0120402968625023
-0.005260077143194825	-0.001541949254775703	-0.07824464952833826	-0.03722982989243957
0.01629017799605128	0.0004462412915098846	-0.08071686105884385	-0.01882452714191938
0.02123899776473794	0.007687478192101732	-0.04692191428079066	0.002297891256795077
0.03094922046833042	-0.001159352180730734	-0.02268907393083612	0.006231734429202826
0.02507465657867723	-0.007181311915973967	0.01498570587771801	0.05284396449383619
0.01552301468448957	-0.01174731707479519	0.08253802250091466	0.08107937709732074
0.01632238106699511	-0.02324055877007931	0.07623126751474041	0.0578037737257321
0.02894520178399643	-0.01795172597372592	0.04388102034301222	0.03088741108454447
0.03021732617144506	-0.01202351468874271	-0.03973901393660105	-0.05099453201996929
-0.0008177201957897653	-0.00470886881396874	-0.0271300101327039	-0.08435518334466627
0.01338761726236701	-0.005031008954389164	-0.04665702410930363	-0.07714075498766199
0.01878104741611976	-0.002497030716491485	-0.0520040540753411	-0.05304268973249021
0.02238822325036652	0.006238932121990281	-0.07087195884940325	-0.0225498391254068
0.02434835442051906	0.01138299275940773	0.01591625849064774	0.03670608459681271
0.01674473002001214	0.003043538778949157	0.08153277466362689	0.03642246736684056
0.004599660872855639	-0.006737862513864818	0.1405596762065831	0.02128501284878045
-2.953635182088653e-05	-0.02366738034966183	0.05763654009781019	0.02366708203221426
-0.00212626557310205	-0.02089630170221488	-0.008682642895199585	0.003714540897470743
-0.006875747272469273	-0.02362619724141568	0.01943380063890843	-0.01087302812398627
-0.02185858779180082	-0.03261421316319724	0.04987718596779456	-0.01193112132481851
-0.02289260613347261	-0.02890068480561027	0.03078588552274209	0.06884365116339153
-0.0201148881603191	-0.03115078178071341	0.03731552923938732	0.1305602305557794
-0.004865053203719307	-0.01655467392854908	0.01827028303925251	0.09423082286740528
0.0168322645807619	0.01508482222665053	-0.005805575935258246	0.06447867555438057
0.02902385073373456	0.02086469107939782	0.03454569665816105	-0.02096576255758311
0.03577051822890283	0.001531696345220582	0.004654896873275648	-0.1071113046225327
0.03174432960171364	0.007705321572063426	-0.05788463933845902	-0.1330309182446845
0.03665386611205648	0.02798501741794051	-0.07954576238695792	-0.0297554002819853
0.0460908560679549	0.03259689832375912	-0.06582281039993783	0.04684320445304056
0.0604444925382506	0.03612799160092282	-0.03219485714566415	0.06400688442827206
0.04756617612441554	0.02543757809950295	0.03368129529788842	0.04356823040973035
-0.007016497864005994	0.02486136525091006	0.02740682808358736	-0.01140274684402464
-0.006393435077479491	0.01796973350426844	0.05678997452100643	0.002678796001725236
-0.00107612582675155	0.003099116525704346	0.06001792577373798	-0.04791114020377139
-0.01620423271046133	0.003318226182537578	0.01971205903522608	-0.04909456107939387
-0.07861543165127863	-0.009119277218681146	-0.01327087883747367	-0.1096502588608975
-0.08279692011866217	-0.00978956135891928	-0.03228405801845285	-0.1388011347273799
-0.05888206808150021	-0.01372338595437845	-0.01328345660944787	-0.08339166642143997
-0.0607181589992061	-0.02153199239153137	0.01694092185741022	0.03373026944549778
-0.05895097918486512	-0.01519909447125396	-0.04353713583977943	0.06646875322820843
-0.06959335158559167	-0.01346303778258929	-0.07271830943093587	0.111777749796501
-0.09692717455292811	-0.01528756643958886	-0.06012976191013154	0.09316322545936241
-0.1007997514571962	-0.01319642098830907	0.08349989867482456	-0.05461267233140742
-0.05445714626592706	-0.002559423558269736	0.04615304744808005	-0.01271243861363538
-0.04317878013222769	-0.006620256851162503	-0.009485410176328049	0.000492885090731536
-0.0613542998430864	-0.006349431796078558	-0.02680991052910253	0.01688584162026911
-0.02775392412464862	0.004336728035303627	-0.05498857187745295	0.009465908459405139
-0.0007020044399992861	0.01290712694858626	-0.03477916931459461	0.07485957395079029
0.02096234595717239	0.01345147365714941	0.008045236287496763	0.1128467537039167
0.02817749664134639	0.008967932144678175	-0.01063998900619773	0.05480682451702158
0.02590835838285435	0.004949424541340897	-0.02509367965525685	-0.02835880966687136
0.02874951143890948	-0.004306399850056261	-0.02020584296329628	-0.0728187717727253
0.02227500648526924	-0.008558484622071877	0.05920023831973591	-0.09620150827821328
0.02432460899259115	-0.01922379268066073	0.1350463656041571	-0.08479883462768881
0.024726841490766	-0.02508232571940431	0.09523146487470034	-0.04342004840904778
0.03567433258916524	-0.02318879547832086	0.01899315713102776	-0.003300901330370865
0.02710036163965314	-0.03476926425495235	-0.1148938580763007	0.058963718303019
0.02581756441770727	-0.0336364405190181	-0.1480540823061354	0.0478687443555705
0.02217284472895545	-0.02805131222327486	-0.01609324542081888	0.001506374805017459
0.0199819919733667	-0.00941598910335825	-0.004894788485208047	-0.01776838561810489
0.02879528613976695	0.002984063327151263	-0.04794462000003785	-0.07877625982860238
0.04303106331500704	0.008858833677827579	-0.006082343889079333	-0.09419654696458031
0.03258174315981707	0.01843503244905525	0.07488907880997192	-0.0658434357958311
0.02603755452097816	0.05327687926099089	0.08123936907528129	-0.008969392790152268
0.03624477357590501	0.07147753513390499	0.05285848246198965	0.01361920847608869
0.032157382093915	0.0572458126722961	-0.03154228719000039	0.03894277240656311
0.01232470794434407	0.006474929706336912	-0.04841314400178075	0.04299333848228792
0.005244492016373655	-0.01845987916350588	-0.07382349665955658	0.0007935642250589221
-0.0009809711772365642	-0.01738571137558222	-0.06259463819052352	0.01263810436742079
-0.0220746460872797	-0.01408419713277078	-0.02468635653636546	0.01635110161079907
-0.01360417619886403	0.003644198235635741	0.04694001149375046	0.0112919795406599
0.001934200707760882	0.03072677398636518	0.06604736595112333	0.01715300722555049
0.006727582019821893	0.04198039757523344	0.04192336385642147	0.03578326914588197
0.01737796209723681	0.02267428286230427	0.01606642953977118	0.02612384155446659
0.01931751542272463	0.0164504930518697	0.02090790092303357	0.01679039358063228
0.02656233638598797	0.01354343007660595	0.02510690133993045	0.02862144369719958
0.03062633699431141	-0.002452965722484551	0.03113637419549901	0.04128090478975682
0.02043528023011045	-0.008393269132511687	-0.03668569901714794	0.04069527682867122
0.01403204071151519	-0.003717387015581958	-0.07091938944409377	0.03435123389890569
0.01385760471794626	-0.005682135180526795	-0.04626910116429743	0.0216910885192246
0.01432940193419394	-0.001078775272561081	-0.0194450333908576	-0.007689212573080077
0.03370646076212441	0.01779905413587612	-0.02238896986698681	-0.03270344481268887
0.02406227546612389	0.0210681277202842	-0.001109623103736401	-0.01645196623400408
0.01937281369285973	0.02004545228853382	-0.007169463896109332	-0.01516254524808838
0.002195159320839969	0.01076606537084618	-0.001338024712076817	-0.02255876459844827
-0.01645224719958527	-0.01821165159952661	-0.003741444421440763	-0.004171906227577942
-0.02280183039223362	-0.02931889921940048	0.02423885100731529	0.01995991355608286
-0.02320691273516988	-0.03830837296581915	0.09664351266763992	0.03380407593507612
-0.02185806861854956	-0.03927820474721579	0.01893890836475416	0.02084596980876049
-0.01656167877167129	-0.02866190269763184	0.005040402432135715	0.03649441154013432
-0.02036157839202993	-0.02505119891980665	0.06942098871706293	0.02458948182569606
-0.01112976278070295	-0.01266601297812696	0.05640031037322058	0.007598717431010867
-0.007056906953476655	0.002461702051128908	0.03416293995274477	0.08569545456391028
-0.003408689115958146	0.02468551361406221	0.09077846727225315	0.0009242185657010662
0.009930981647473382	0.02465236424248411	0.05927070993723664	-0.06466795300122857
0.01205663487773716	0.01921625282983734	0.03835621450929146	-0.04399199439913119
-0.007690846347752927	-0.008473357129561907	-0.02373104655758514	-0.03256733178749235
-0.001646892132405636	-0.01059286904286813	0.006610061826731744	0.01076481128639938
-0.0008722924075536795	-0.01044667388583361	0.01572061269896755	-0.01722689129548547
0.003510989326321358	0.01423024786624655	-0.0189484519244933	-0.06206900844416964
0.01824628832626849	0.01349082686698152	-0.07029729325338686	-0.0208258842393608
-0.005562338302150364	0.0171876043656746	-0.1005481710667186	0.02314994570753974
-0.06930523334177105	0.00659698391574994	-0.07595254457132813	0.046302266315466
-0.09950307536699907	-0.01538800425887607	-0.07820319023710583	0.01903993797071115
-0.08025668724237116	-0.02037588402200471	-0.06975952296560617	0.03891571795755935
-0.04666920793607772	-0.01370148095712785	-0.02713469132058881	0.06371365606665924
-0.032068440055217	-0.01460145692117898	-0.006177522459463028	0.001578139133106361
-0.004684425891452518	-0.00945646898388283	0.03622262810927634	-0.05972761080436945
0.01026396519599758	-0.004158232549197517	0.04658585051610934	-0.005769388688226509
0.03609928767817051	0.02172402123999748	0.009285122309206596	0.02789744679941895
0.03322720823862544	0.02802938066956124	-0.004208743664338493	-0.04799829995177412
0.02563146237726812	0.01666104898873612	-0.005313970238997813	0.004210828751411617
0.01613873893432028	0.003515805674369094	-0.1319258456160471	0.03520868128359134
0.02171719530969914	0.007377815884284158	-0.1036211904360242	-0.00682034727101595
0.02842047710650833	0.002965088906778515	-0.01644619412719489	-0.04102908594468198
0.03169208470165338	0.008804876389993438	-0.00934236559790266	-0.09840305050704302
-0.01676789849594442	-0.01511496325992989	-0.006881235075499016	-0.08929472198323113
-0.02025161978036969	-0.02743518211562938	-0.0105776218076618	-0.02489736717052155
0.00583750894417076	-0.03153237883180111	-0.03280652636802554	0.08618967060739183
0.01205273173887984	-0.01442990182558587	-0.007737214184622136	0.09545367181508028
0.007812399642404492	-0.01372865300943024	0.05108456761296628	0.0243828402393841
-0.01558689467664984	-0.02497352045693612	0.04973779968129615	-0.08152367586464372
-0.04557776609266807	-0.01753733048758061	0.03153688436103542	-0.1717234709672507
-0.09785866611385269	-0.03283061555678526	0.06279612498458841	-0.1709221821999794
-0.09437076428025853	-0.0430947886890285	0.04180994813670071	-0.09505098860302122
-0.03291386729382887	-0.006571838382195361	0.03953361366448668	-0.02562075339733202
