0.006461241850350943	-0.007941393592456724	0.06640191400021304	-0.01486991280582273
-0.004312196175180848	0.01882091344787867	0.06330925543256692	-0.04671565113846198
0.000272907457252508	0.03540235977532945	0.02525352924529037	-0.1018323397088661
0.006695219703080212	0.009750780923561009	0.009161197346216147	-0.08650382090874262
0.01247515905611969	-0.01203306918487588	-0.02548284014221677	-0.04879415885322638
0.01539232861887223	-0.026384961748052	-0.04513771329363796	0.06684073811763168
0.01634425497961906	-0.03215715641101409	0.004643606823897905	0.03942337789936665
0.004019054726153626	-0.05458522494922131	0.01544206019518622	-0.01328950811968543
0.003315364424169976	-0.04249361942523947	0.03160430457695745	-0.01211106009769467
0.00040849382498607	-0.02553922293123334	0.0213431344720733	0.03559404224531972
0.007767022191583773	0.0044502779853059	0.05021180479709662	0.03228250529508374
-0.001998895955850804	0.01163895898944183	0.01577490865909061	-0.0501842471415043
-0.01243094670052003	-0.009789302266674883	0.003736467505205393	-0.08667178170054825
-0.01061173903514734	-0.00592891451707198	-0.01423705890808376	-0.04738937297502559
-0.0006260814810312315	0.0327997131109011	-0.0403773910620208	0.004182450956855111
-0.00341082992089734	0.01146611500282422	-0.02770748827013172	-0.0457293113836066
0.002839351277757051	-0.0002465210790562302	0.02075114031471665	-0.0440434730247937
0.0130137605506762	0.006714230492868719	-0.002223384988285794	-0.02598382370030239
0.01095169493699654	0.03068919610200432	-0.03191274868992709	-0.03273863697452256
0.0148454916542939	0.02986642524418702	0.003614322969829517	-0.0253936157053967
0.02467115941972927	0.03201141890670279	0.04143362744947778	-0.008272883528125601
0.04088480480433455	0.04410337631684179	-0.02896574927201637	0.003818444873693803
0.03861853149356828	0.02784251797198721	-0.066250411495016	-0.003141979545202649
0.01058425940591657	-0.006497631417285144	-0.08382620872847657	-0.0008728093369920277
0.002828671692574732	-0.01291893349192779	-0.0391876659044464	0.02656990107120132
0.006400453102983166	-0.02613686075787523	-0.01660304208418392	0.03149733443979484
-0.002966693859600171	-0.02698671602005055	-0.04491351086592512	0.0491397983487126
-0.004452787990350239	0.00453982044687169	0.03534072816287934	0.05429669456167874
0.01120994102736505	0.02928960261252352	0.1416434545755126	0.06459230306169646
0.02133846287452362	0.02477068539846335	0.07972299709946244	0.05145817191003176
0.02385402875245662	0.02234872999576427	0.01135651065373602	0.04878196008630945
0.02106682377288989	-0.0004351864653882571	-0.03153391343982732	0.04279007401889496
0.01267247307100316	-0.02034236616185426	-0.02328124308187801	0.03210550997065947
0.00129552956146229	-0.02571584258679425	0.03810376712082757	0.04688601508740074
0.01652735286962341	-0.002358674234006829	0.1038404254831048	0.01574766703534052
0.01214346621444554	0.01606083155130319	0.06515653255371436	-0.00208928562881695
0.002342331588258768	0.01993509121045544	0.01717911377281993	-0.004064614146184893
-0.000153140866036916	0.0159780687395453	-0.03720964041805947	-0.001337428570567242
0.007575516402925314	0.001191949763261814	-0.04635179270938389	0.04194435505372612
0.002826335523316628	-0.004784318728429689	-0.003137825803624613	0.06638752165744925
0.001155611400680289	0.01420676727372534	-0.002025517652265824	0.06156570888481332
0.00161133882423286	0.01119664072602679	8.518952323542965e-05	0.02934741675852583
-0.01227037718152433	-0.003754755144998049	-0.001618634761756088	-0.04887070239682005
-0.03093481205392035	-0.01526551941911355	-0.01461366908195776	-0.09443053436836371
-0.03316366240547247	-0.008819362767674166	-0.06271326464226351	-0.1310501543943778
-0.04018316474253187	-0.02473399904528106	-0.05902241354437524	-0.1136236518566442
-0.04426467268105147	-0.02564693727754705	-0.03313841717122606	-0.08777395302209583
-0.06566011866671768	-0.03341823760432305	-0.0432054320933223	-0.06963791938075142
-0.07327785705160898	-0.03905118654716967	0.04118414828099448	-0.05840902913274672
-0.04311425803149252	-0.01092856035186711	0.08591582988419577	-0.02108172085018007
-0.006661460818067183	0.008136105507549247	0.01794538903694493	-3.905543949004405e-05
0.007777757600734046	-0.008573144135490799	-0.006352390741894701	-0.02588205236022649
0.005679164116636744	-0.01174093303009068	-0.03020588984064602	-0.001979471244182155
0.002784584677281666	-0.003673017467040656	-0.06286909905351019	0.04661691106736637
0.007619859622431212	0.008225474575394838	-0.06736442332633454	0.05875801130391566
0.01315280805055452	0.01458164370063565	-0.02030152683444439	0.08374045181949977
0.03499264097248263	0.03187851563932526	0.01424835423339831	0.0776323529215437
0.03107326742820749	0.02176407570431771	0.02400920107660327	0.05795384792710219
0.02416565562668994	0.02261191519238977	-0.008693591412754694	0.0957751226957648
0.006162633328798121	-0.01172362992344807	-0.01373494832067781	0.09768459715565235
-0.003639049894520463	-0.0306046615148288	0.03592138792586533	0.07611608826872264
0.002598778534168593	-0.002883097019532414	0.04109531128481881	0.04254052304890703
-0.00319835596974935	0.003749554692635318	0.01365010079444397	-0.04047910720457299
-0.01114603756640618	-0.01417734985050607	0.002869688034672737	-0.1421188204622746
-0.01104449065383871	-0.02402127654013887	0.009064892043446385	-0.1633087997788844
-0.007635296271507623	-0.01367082193406515	0.03302673111601442	-0.1292236598092649
-0.0005583658620725311	-0.005658979020381719	0.02288996596064859	-0.07393087804480582
-0.004385685380064478	0.000228222346229631	0.02552766271535139	-0.06315399324789814
-0.01902783537220361	0.003283380809859476	-0.01956876395229443	-0.0242592956262902
-0.02144685527308443	0.00775499667440752	-0.05249176788675008	-0.0141785241138577
-0.004109588881665712	0.00506686537167546	-0.06111186214082396	-0.01088792024466394
-0.00125739942741858	-0.004220027818005952	-0.05056191418206448	0.04166188328780544
0.01330329897392969	0.009156307569590223	-0.02831962722478771	-0.01990575468011284
-0.01635446623286491	0.009099053319271829	-0.01167871753994431	-0.04154065590218204
-0.05140693686175112	-0.00843505269377013	-0.02681901969943626	-0.02208766411177315
-0.02051414906117086	-0.008642173030423804	0.005113655216202525	-0.04183199544061021
0.01238149959111194	-0.007869875145560725	-0.008849920766411574	-0.05802402383136714
0.02352497634882216	-0.02018758552091842	-0.006839474702358357	-0.07933372280075088
0.001885622662302351	-0.04935130098149941	0.007913037324243652	-0.06565414434290472
-0.02218418672221692	-0.04829150216456643	0.04176647101474613	0.007950460593045761
-0.01813150736804359	-0.03901337026963687	0.01695113367807013	0.1006653121203376
-0.01046785507287847	-0.006816565248090219	0.007768997130957751	0.1114584732151124
-0.008734660087535357	-0.004935947182758092	0.02352828056006017	0.1418978504459772
-0.01424884269270585	-0.01694669822026137	0.003606821675871795	0.1728427667588178
-0.01938242618416419	-0.01343795479238628	-0.08674638220444492	0.1050376347245001
-0.02517757624438175	-0.003704581786820265	-0.1016990851204975	0.09042111779964454
-0.007196672179586576	0.01929048120420431	-0.05357783300539898	0.08681887976914873
0.02669189833504148	0.04675161292099677	0.02277828741544819	-0.001645297568727303
0.04092173740483386	0.05945653703804052	0.09664454123118292	-0.03551955782407902
0.04413579080696166	0.05122739653182452	0.09136806330350378	0.008050559682639824
0.02627235734743851	0.05054343750480863	0.06062917873421209	0.0579773387263011
0.00984040167892071	0.03765250968226195	0.02538076509062879	0.05734840495938105
0.02273773988665281	0.0319639119271395	0.01444818811791936	0.02683850428268117
0.03072634236052777	0.02907386911204228	-0.002974770455295558	-0.006368335999795958
0.009225848173445973	0.003402768440654707	-0.02382091428206782	-0.04568724696950638
0.01631600465187527	-0.009231903200243146	-0.008377469178279879	-0.07013775548862798
-0.0003612603865158474	-0.006236730738179915	0.0007666668944972732	-0.09268753749997694
0.001786714789376223	-0.01032421037557362	0.007943769452506893	-0.1082103604944155
-0.0182449941833354	-0.01667639235182307	0.03753148026529646	-0.03795751397359889
-0.03116133910494075	-0.008261814247243714	0.06907047858881782	-0.0205259415258293
-0.02327831551985979	-3.74628868935427e-06	0.04693796413836483	-0.005452120921488951
-0.008886014707262815	0.01148588764893048	0.007154554928285732	-0.005647480831088818
0.002158700693863772	0.01212540225413494	-0.0292598989601818	-0.04016906396292803
0.01290691872705101	-0.00395545475519544	-0.0196263706749043	-0.05377174076558792
0.01321500636666146	-0.003009911102761977	-0.02727743336234351	-0.05394907820063973
0.01833560841394118	0.0125803051036246	-0.01876901848396956	-0.05605981881996727
0.01473305043790629	-4.067859995962326e-05	0.01513433088577788	-0.05915006853632884
0.04919942748587045	-0.01231662374728684	0.02691911635930134	-0.04979037478260864
0.04734919288611172	0.01417159128601548	0.02549608313942557	-0.003298848556353927
0.02955443887388131	0.04096892041795327	0.004061616475237124	0.04525133874315965
0.007942991571140628	0.03573026136137332	-0.112865108513904	0.0696479972169874
0.01058502337347499	0.03879999233064717	-0.1303788937995024	0.07896607824631928
0.02032799397444439	0.01874929306610388	-0.04035798250855515	0.06897980277285351
0.009387695630439204	-0.02952899437780727	0.00522874815226931	0.04477189339492293
0.001330253391163587	-0.03995695784823273	0.03868906699999372	0.03749335828987077
0.001482797101032021	-0.03416608696220812	0.08613323998174068	0.05359630352328709
0.001838196013129755	-0.03358028090904968	0.08839964761140542	0.05154718770236089
0.009622996582332117	-0.01086547131577002	0.05332961783917824	0.06408946031904973
0.01158270385139599	0.00540135735116829	0.03755755926054485	0.08886246349197247
0.005270523835511225	-0.007020742169291323	0.01542869465567721	0.03656382095171624
-0.02305667106732658	-0.01213345163191721	-0.01881584335842746	-0.02221022965788272
-0.02550116521834379	-0.01705825443688547	-0.02378215535025326	-0.07265271110075741
-0.005409053429729811	-0.02623075827614357	-0.05979800589313747	-0.09477441364361458
-0.01240858758712698	-0.03391097725566068	-0.0529776224870546	-0.0703211004461871
-0.009615163088279704	-0.01531596851281895	-0.03458521804594175	-0.02425281771732588
0.005048979113952466	-0.001599061072765052	-0.000483351380108655	-0.004943731392584137
0.02196939598617826	0.004275069057281911	0.05938720843374563	0.01122551077339565
0.005751683625259406	-0.008298083741678303	0.04078411278576861	0.01278641038221151
-0.01314064811690549	-0.02085251916701857	0.02770702675304577	0.03516707652555946
-0.02187130863868366	-0.04603711265148096	0.07045834370564102	0.03354019040628983
-0.02621929853267108	-0.0653193452541052	0.03000262970851387	0.02587988040208877
-0.02223001980983365	-0.05898600742842849	0.05711150486877486	0.03240545699136982
-0.01319133068103223	-0.04413473954372328	0.01674625467008847	-0.01467475282313371
-0.007711870273627245	-0.003348425405420901	-0.01549705229408942	-0.0840180001088762
-0.01636568913161095	0.07727681954455926	-0.07400502441375784	-0.1123180363244525
-0.00187321446517342	0.1172512772802461	-0.05329613916602825	-0.08434708296772023
0.005312365547600892	0.05267419467060973	-0.03059504654580217	-0.0296017723559226
0.01196076149496768	0.01759930737535296	-0.02988124608590101	0.002510428371911462
0.01729785430844108	0.002311929280229766	-0.03985134887145194	-0.001254583317902872
0.01801259512420409	-3.944035843680407e-05	-0.03868645273597766	0.0033867079555619
-0.0023380185704797	-0.01221396320720305	-0.02910518433059941	0.01248301403487205
0.01179411598438154	-0.00673434771453472	-0.009662473115707988	0.01599683836949502
0.01296212662464288	-0.01683140077401859	0.02433664737366929	0.007314405381641327
0.008863449971526228	-0.0007819070958566513	0.009155253796009104	-0.006358949685810901
-0.006229006408675198	0.03340636022489991	-0.01330455155562292	-0.02737454325136313
-0.04951761569547069	0.04504384023803193	-0.006451369677936386	-0.0009680465025789444
-0.04589774414469267	0.02860209857745739	0.007910769070200756	0.05715163115258216
-0.01484490674946154	0.02404271958569253	0.0008193193046664129	0.03308432578976647
-0.01114185980583577	0.01813265406549096	0.006844690834965432	-0.03888055263908482
-0.02446282995871018	-0.009707241524508223	-0.0009859572347912801	-0.02697020945367892
-0.02812046114762629	-0.03541429965088809	0.03002363056610171	-0.02938435134515421
-0.01273085931416476	-0.01848718843556401	0.0246740430455251	-0.02081794591872393
-0.003176637708169698	0.01707271732946388	0.01046358868524621	0.04664268295123957
-0.00889410399728083	0.02610445972786916	-0.05226439333395973	0.1646657547906869
-0.03741068369742766	0.04391885372452906	-0.08256683047099862	0.08748305319002569
-0.05002302348568997	0.03726174576287807	-0.01893894127888991	0.006085703354867131
-0.01368656051641635	0.0146754386356887	-0.05724446356993489	-0.05068326908266534
0.01969832024775092	0.006434946878813267	-0.02263486091743365	-0.0758193988208752
0.03534305017117106	0.003887104814899804	0.06367065567773857	-0.02794383838861719
0.03402912828172649	-0.01129013698726616	0.06803007087335876	-0.00952682875135543
0.02293520744372949	-0.01601444806839784	0.03034381677899813	-0.0137962481906009
0.01066436627417888	-0.01869015615236639	0.0367271763699587	0.01018781802932868
0.01650077916221428	-0.008636015563467912	-0.01236926221822361	0.05068951358883968
0.006987321928163089	-0.03192937624704588	-0.0415082415826244	0.02468980890128195
-0.008742153696617259	-0.04929386555879259	-0.02348225923094965	0.01695671939992173
-0.006644855127781905	-0.04508881328068952	-0.0716990278449285	0.001620780977311348
-0.0007850270952404488	-0.04952420509193527	-0.03022861937705038	-0.0127393562137818
-0.002884746199092964	-0.05348866614026805	-0.002835733969337387	-0.01061797331880152
-0.00269115121523165	-0.02394178193116435	-0.01879726947905537	-0.01001572802574613
0.002601977761995529	0.01399544230214924	0.04257156649324926	-0.02052760705664749
0.005189222733906851	0.004118895550020625	0.05143936168380079	-0.01196839029067401
0.01513533933079115	-0.001605226280313833	0.0553457687408978	-0.00831142218102072
0.02174453892852176	0.01050561230147124	0.03438718067780464	-0.008914172841037182
0.02062630249170017	0.01791074964143384	-0.02670128735597752	-0.02819640237308513
0.0251367283381296	0.01787209695440245	-0.04828522380655579	-0.0205851159728739
0.02615709650602057	0.0224849637463936	-0.03285729374009669	0.005757058237806537
0.02809859972453889	0.03258735888410046	-0.01660372466884205	0.0133714687569443
0.01862914354352235	0.02512401299882085	0.01695285041211973	0.0133375001589211
0.004843897950660365	0.02864628578268244	0.03564436415907692	0.02254884970553848
-0.01261236348710342	0.02415079382381586	0.06945776401912235	0.01928873851731834
-0.04934037309632483	-0.01803601702379099	0.04219035257699169	0.01791382681405609
-0.04811655472439408	-0.0323556834956695	0.01787741564006817	0.01467694799784376
-0.02482752189136795	-0.03121564784636586	-0.009426246100529834	0.02276434733733733
-0.01317962897165741	-0.03238236491726706	0.01997027934250323	0.01385448608157209
-0.01284682234212054	-0.03106938861073961	-0.002319619214671511	0.009071010835277185
-0.008750876758221648	-0.01417568554892117	-0.0200199438238823	0.004086215644449552
0.004030152050495527	0.001989209695777993	-0.02840945867699939	0.02418605403843878
-0.006170722216517118	0.005787262665836089	-0.04506647842604478	0.02955172583789974
-0.01097165215146037	0.003282551916870349	-0.06738607035656383	-0.0248945375089066
0.02247442829735771	0.02957042323969008	-0.04510724585778832	-0.08433503925365811
0.03858980614551907	0.04268887909373548	-0.007034218771159325	-0.07030480446721177
0.03532327579733213	0.03590434294877944	0.02214826703476007	-0.05333836712906456
0.04303003850057861	0.05219091110186252	0.105328902028781	-0.01358339379727692
0.03945864179016168	0.0716693793727206	0.1105973537655248	0.01166259744327471
0.01903491431598949	0.04285988852687509	0.08887487755281552	0.02320480254971385
0.01460948808235158	-0.00221125630163191	0.06640529182508922	0.06419153844837459
0.01400079135452777	-0.01807695991603988	0.04142188688166681	0.09319936447470704
-0.0001871684384231419	-0.0319122985000182	0.0693240860606063	0.009489345567014208
-0.02129756319999932	-0.05006165112580031	0.03736272242210309	-0.04596847642954774
-0.04891841752818461	-0.04531663457260227	-0.03282353230862468	-0.05243538176915458
-0.03808386818062407	-0.03895732612359702	-0.07213173187771006	0.004628686969204905
-0.01695685185926251	-0.02837836773607141	-0.1000317350879524	0.001590393386711244
0.0004236835717659064	-0.004901808385096065	-0.08912664382878628	-0.01042061628041895
0.01106036235722103	-0.01427182943830296	-0.0148909024257048	-0.01567833764346218
-0.0344456463815404	-0.02523676602533325	-0.02370705136472969	-0.01714338065313766
-0.05664861295925735	-0.01061854719637111	-0.04639777629452236	0.0301685435741519
-0.02398531229625962	-0.003076509720471964	-0.03071658880127776	0.1094777730157705
-0.006086012105111159	0.03417684956597902	-0.01980452944474546	0.1256829489338057
0.01469726693797135	0.07799001013639936	-0.02332426228943162	0.1063374256921042
0.03037150853121134	0.07810140006963781	-0.04941059176755425	0.07945996563189678
0.04865302081958445	0.05817027640906014	-0.04292501262330085	-0.03651532165898874
0.02613878321981343	0.03426124331677827	-0.02092611326074187	-0.122463230635377
-0.00987535194635447	0.01330738436910924	0.05435759682362533	-0.1069997501180302
-0.01028346438356736	-0.01081120909930257	-0.002873838773171532	-0.1061544828713631
-0.004284404396688763	-0.03806941535645734	-0.002290601115558854	-0.08131018742046894
-0.01269888418127982	-0.05075357876223858	-0.004804702766180172	-0.09475187549332643
-0.004273903114092943	-0.05490534984718793	0.01072498933130235	-0.06638035937268556
-0.009313452048342757	-0.04984218015435429	0.020525457509034	0.02020924075162043
-0.01237891963859269	-0.04475418190430022	-0.003824655557250003	0.02039220453222257
-0.007200088325773219	-0.03629090496755124	0.01357524683043914	-0.02468567279445587
0.005391222269977061	-0.004180624623461408	-0.008699978680610817	-0.02025916387076778
0.01977099487447449	0.003947790779366012	-0.01057758301154613	-0.01732971339944237
0.01782562971642752	-0.01081410615839715	0.04117494063467382	-0.02264031239977952
0.01534650254883708	-0.01236197663787133	0.0435097740147062	-0.009788283415714197
0.0122642430006978	-0.01644243786642367	0.01582800355001211	0.0171708573350947
-0.0123923189209828	-0.008943614116711867	0.02957855337882991	0.05620781511620564
0.009411088231665551	-0.0007007995363400231	0.04311236526496899	0.08147704941504597
0.02379997190302156	0.01631563872461027	0.0368169072087878	0.07377929614228014
0.03071602937082654	0.01287092145134117	0.005038766967666029	0.00802726942420256
0.01951384600082623	-0.01791784784347087	-0.004954493132959045	-0.05803688210277173
0.008363435847342889	-0.02768786245556836	-0.003213790075619814	-0.05411074915953379
-0.02893566861212459	-0.02572906337078347	-0.01835853578900197	-0.07088272550520032
-0.04800763166198591	-0.01822969805163591	-0.03615282816211592	-0.0543560387374989
-0.04003876274316051	-0.01275784768674129	-0.03287783825797373	0.006781446315136636
-0.05578057114161515	0.02481337464894455	-0.05642476322366227	0.05393074850642177
-0.04208946279429992	0.06337591454127908	-0.04092025053305031	0.06739297905180759
-0.01043736503472332	0.05984717262878564	0.01921287156206188	0.02602646648277462
-0.01017590110521127	0.02712457353828233	0.01265623067806961	0.02096593884921014
-0.004928150635404068	0.01345215288006505	-0.00115330647666945	0.03697550439751804
0.008366163587879434	0.01760061553831468	0.04614494609093981	0.03608451773881104
0.01888457225526684	-0.003263125545498746	0.03942405076850526	0.1180352001020862
0.02383427018727007	-0.01645130590721598	0.03264906144910656	0.1218645992074089
0.03090173600761649	-0.02685842295987382	-0.00690336238638241	0.04201887318647035
0.03394232314868222	-0.01604159189943056	0.05545070268389207	-0.03038692450052622
0.03859315745754768	-0.00452609958387593	0.02583668294947661	-0.102701592821005
0.02742820954445838	0.005841854186503187	-0.02244694402014307	-0.09204943006352678
0.02094408293459306	-0.005717186142716078	-0.00117738497036112	0.002362931892119786
0.01787491007651096	-0.007339800607696464	0.0004919181204903673	0.07202798007311981
0.01739789514143759	-0.003075437236449894	-0.01832581502005234	0.02706952507772599
0.01760908816430698	0.007603026582760323	-0.01439679471475073	-0.0294195498388628
0.008507381256227423	0.02368143572280525	0.009188195463408627	-0.03945750295541769
-0.01403983002777032	0.03545357760104612	0.01120602899998817	-0.01176579986510557
-0.01456193555355932	0.02394176243625119	-0.05702811048833957	-0.01676220804859875
-0.01713502243787498	0.01477743885568104	0.01758245841734311	-0.01991079628644151
-0.001582106274967033	0.01810384118278241	0.006520696887346346	-0.04059232427510915
0.003894164473603435	0.004937544232164527	-0.04119992560484386	-0.04314010481166131
0.006136713453701137	-0.0161426429191143	-0.01163650457880193	-0.03013762689481191
0.01025852611399072	-0.00780428040836055	0.02070256395342514	0.02275103968650372
0.006545920202816009	0.01975432959912806	0.005275253783258729	0.04694079341315917
0.003431191347088369	0.03153306582299264	-0.007237986649149398	0.07164324147731581
0.01054598154498796	0.03670026084632871	-0.004857536251526497	0.05859446753375108
0.01233117296055813	0.03689039786603722	-0.02672558064054715	0.02575848607008288
0.008327446346088303	0.02982597329246371	-0.03359516752806511	0.0003718354724392358
0.002115727376857179	0.03896350717803403	-0.01516085937559049	-0.01831032955636028
-0.006542424224873677	0.01820987550412148	0.01359724145317826	-0.01620010865819512
-0.006637750986683401	0.01014026397888555	0.02804080846962205	0.001830290220359497
-0.01193546358828124	-0.007933932908146412	0.01689067874220429	-0.000347777449233638
-0.0230773276959365	-0.03674224566509923	0.0001602537668132392	-0.01241497310802526
-0.02517515997545473	-0.06135422875508077	-0.01197074429242817	-0.04171869440429961
-0.01694289469318064	-0.07995546551271007	-0.0450471369394723	-0.08270648225948815
-0.01647449733524802	-0.0846958357820107	-0.03038594668827827	-0.1030139333675489
-0.0209777592564603	-0.07986103714687665	-0.02073804860635172	-0.1027522628228664
-0.01339720387825762	-0.05153142172191492	-0.01559497046353617	-0.08047080693513936
-0.009836330083620093	-0.01556736170280283	-0.1002184019444869	-0.03542383963868551
-0.01518992444184583	0.01099758505009703	-0.09323961824707991	0.004835026375600707
-0.007351868310714625	0.04593934929644185	-0.03546990239363517	0.02322605753586838
-0.00279274817473576	0.06413958630029912	0.02132809842142811	0.02878424044354685
-0.01214527250698177	0.03690353819756338	0.1032275959530004	0.1258455465901241
-0.009107036848611617	0.02147703071759944	0.154323172225153	0.08572185165995704
-0.008192597920568841	-0.002009023281229473	0.07075205384310888	0.02797430074625744
-0.01393769232197752	-0.02507488278034496	0.03034364365930379	0.07991596646263932
-0.01665251779320969	-0.02742312356377569	0.02678105044892036	0.07538763106009261
-0.01347709180053209	-0.01485276873833174	-0.0048061854721249	0.05325592500834628
-0.006147274417262351	0.009711716378435757	-0.04547489580848639	0.04960762073583196
-0.01280388352178105	-0.01317091005498039	-0.01149814441941567	-0.0176383211156408
-0.03718422436180623	-0.01056186470989959	-0.02597637111199233	-0.06222163661145823
-0.02399541336351927	-0.02167185087697174	-0.04973719824633219	-0.0340927267496273
0.002473533085307181	-0.01471638499314649	-0.05719103340118514	0.02864310541383099
0.02100918892895955	0.0001149453151315715	-0.02497810649218197	0.007020811109980095
0.01566980661023376	0.01087413990410928	-0.004992074816411455	-0.009659089872532218
0.007526225230014135	0.007757382762516807	0.01857096464518299	-0.01297008152747773
0.02101699544052294	0.02376826358088455	0.08700745176774262	-0.03514280655949697
0.01368535980436148	0.03324529164116361	0.1021568901558897	-0.06982964610980244
0.02662715467568541	0.04978934342242927	0.07234846564954867	-0.04616895916354789
0.04335475858464796	0.0358937263779964	0.05514927270809428	-0.001083237219974541
0.04650094863740296	0.01066056018636963	0.03046361629885846	0.01468724125016489
0.05046679835138477	-0.01347442292499914	-0.004754028512059236	-0.02083845089831943
0.03481903458364626	-0.006976714550394653	-0.01554593166292676	-0.02876528480659252
0.02782471159741278	-0.01485560508447239	-0.02097560880890405	-0.03519245349365452
0.01714385883667326	-0.01815030671232186	-0.0523267623504205	-0.012757076579257
0.008977547729110783	-0.008846462822667626	-0.05743885225725669	0.01546928396008381
0.008459044746364342	0.02392109854494454	-0.01956867809480626	-0.005251498621983241
0.0003746976344620133	0.03100689213196606	-0.02282833170811432	0.002984493386163608
-0.05378032288757778	0.007608087208071421	-0.01991985893397687	0.02009409742797903
-0.06301727919421492	-0.01591066555756494	0.01929509853448983	0.05333416099651402
-0.04221772089311779	-0.01426137249283292	-0.0211395499512922	0.09655926150055187
-0.00474735140839654	0.0172227185003084	-0.00262834349125568	0.04722976777283624
-0.003673738011129379	0.0298118888570282	0.1093505986831298	0.02166241350603825
-0.00650246688192601	0.01197302874996257	0.09309261682037816	0.04296111827224297
-0.01144662212549558	-0.01977229328489779	0.06914654467942265	0.05300337441050252
-0.01190343840056584	-0.02651660689779819	0.05645530323326883	-0.02081722248150904
-0.002413809745732744	-0.02275719680540988	0.009595806998275544	-0.02617335576403613
-0.01819501383593694	-0.01479601960074771	-0.04611347225060113	-0.02649114961055203
-0.02457126897270383	-0.01797846169941412	-0.09542850684838712	-0.05418724679955488
-0.01800695007971278	-0.005723546154421671	-0.08657037534997367	-0.04432954240610982
0.004144811315358102	0.00508138241233475	-0.03980393361600977	-0.02070351496713187
0.02058470077985998	0.01443708351879765	-0.02523454076572039	-0.04595665695059928
0.006007320749688457	0.004376653636585753	-0.05131456664898051	-0.09729147693804319
0.0153817643484827	-0.004748064510624401	-0.03311938486795223	-0.08179693196278578
0.02485844836093653	0.003826414168083743	0.01907541533122129	-0.03995245848676091
0.01617059343603507	-0.01158377187306119	0.06213520930928165	-0.01104806454734082
0.02079661904579162	-0.009769500624870526	0.005087998610459407	0.04011395372772103
0.0223802828217125	-0.008222583239788341	0.004623994765586795	0.04557237502669071
0.03830478964952606	0.007078497753981221	-0.02767480163632042	0.05510454252549388
0.009322798672190144	0.02051044363003209	-0.02948072754598282	0.06890087929293974
-0.01746106069307828	0.02387031851487482	-0.03444525595704695	0.06790753929544885
-0.02248368229184985	0.02543436598206953	0.01987818974030285	0.06845928870033549
-0.006374023893821105	-0.002204815227647873	0.03021278259694152	0.05384473713920401
0.0008155583757862464	-0.02803035567373482	-0.02622833711426898	-0.04333815968712118
0.001622594643132716	-0.03989171329398958	-0.03446423361992282	-0.1176735841807721
-0.008890915601744903	-0.03051920059214463	0.001053477064170113	-0.08398666357981435
-0.03327438355971444	-0.02212945786904533	-0.01349761954607749	-0.0008677737709341985
-0.03227158636423464	-0.002312639044004615	-0.01385881351455358	-0.00665787587034569
-0.01470140062663302	0.003902534052853118	-0.03687317392841064	-0.02355744200379926
0.007300255726364308	0.009513501333782292	-0.03847138407895892	-0.004947094571437878
0.02178033813136062	0.01013039297186345	-0.03966471929432869	-0.02701361245400688
0.02016323940942339	0.001347462624003655	-0.01357975349445338	-0.05821545112883764
0.01181508341157329	-0.01815601997074296	-0.01232998570920865	-0.01638901095498029
0.004075707714590476	-0.01206960093555726	-0.003986020306027922	0.0725988393693054
0.004801989519674922	0.004837361675411064	0.00149876654263487	0.004573201789388807
0.007906931018707167	0.001463612511936367	-0.006191075140505762	0.01476606150367332
0.002761912493826632	-0.006531285209684881	0.01739462964770659	0.05069868684316152
0.002079253294832987	-0.005878813821102176	0.02551634219496483	0.06755217867143902
0.006929455095315912	-0.005643783778341355	0.01529706338703514	0.07051279144684561
0.01224746315428302	-0.0001582718989529485	-0.0406871391284453	0.05132753563870149
0.004369499501433827	-0.02160982941637642	-0.02970954594279916	0.04280862804372238
-0.00544617086820889	-0.03537498226965991	0.02181325608653932	0.03223927789905075
-0.01027547629465499	-0.02862276914261069	0.08741097196244788	0.04417576484578439
-0.008303632311048307	-0.005841030052372991	0.1106553223547023	0.1018454418617969
0.01373146221539153	0.04036117865479925	0.05853831938364031	0.1086758849679081
0.03399358638124326	0.06841023487371639	0.03730738353211889	0.08503469655756951
0.02309324907196739	0.03567426401630566	0.03653188812916048	0.008479093085875432
0.007899159518956707	0.009611258861370233	0.02294862245705459	-0.1435108770618372
0.006363913901217526	-0.002615019531356901	0.01668487180041344	-0.1651784763896307
-0.01291711399223549	-0.00350016412238677	-0.01204989448167495	-0.1923031800438255
-0.002696230363184796	0.005800307046925622	-0.02943185934169476	-0.1494029995011874
-0.002428773842351418	0.005299840040924451	-0.02170434097557554	-0.08398615590359468
0.007043990370890311	0.003530521719175824	-0.02425644829157954	-0.01684957230052497
0.02175066498662485	0.01019595907847608	-0.06106033304739141	-0.02601849618193339
0.008248885236030791	0.00988735776633058	-0.09746604650902367	-0.02013485506673683
-0.009085172614482611	-0.001057482930200391	8.20094602578149e-05	0.009328100489300654
-0.01707682071656869	-0.007884099449261769	0.03562392822043439	0.03988917830387659
-0.02747665706830583	-0.01763914292013905	0.05119097727729659	0.08418200363794846
-0.04010046852748674	-0.02205834096135394	0.1290072666267869	0.1087518704211652
-0.04246583256293259	-0.02295470097041851	0.06016745925157969	0.04310322972003165
-0.0528680006330323	-0.01545284899399723	0.01193897191221278	0.006644139877810055
-0.05419603552432068	0.004800678388610462	0.03676002459496367	0.01845759237865393
-0.02254864194880213	0.0312734512490464	0.01877332581192561	0.04006828430821864
-0.002079891137798105	0.0007561994080316623	-0.005677053395549594	0.05710924978308782
0.0164304517321679	0.01601991900418804	0.01972241436352122	-0.02747146193997708
0.0135906829003106	0.01400891730695176	0.01644285103538524	-0.04037388380516696
0.01476048710117116	0.02099904038847511	-0.0398566583494576	0.009788824993126952
0.0210111604695959	0.04601519423338227	-0.06010530809289576	0.04073652469786641
0.03349903049707924	0.0487118528862869	-0.06522614813399163	-0.005743722217609551
0.02845068874740852	0.03629580747621937	-0.05941715210111256	-0.02499965204019143
0.02397412006695366	0.01113933363812955	-0.03712853089802863	0.01236160004103578
0.01262902082619083	-0.0005588108683269794	0.01726867737209768	0.01710357756382238
0.00797412277446884	0.008647278533594283	0.05784839327769713	0.00310094317465622
0.006283755521086972	0.01624607628272506	0.01795083488443981	0.02386826565112307
-0.004861620051878158	-0.0006039454754816437	-0.06227485616174155	0.05061199579797806
-0.01069669785174406	-0.01336670365806981	-0.05148163055557743	0.03237071209279282
-0.01609821451143397	-0.02444206579691023	0.01310728637641362	0.006055408139910283
-0.02758662335628015	-0.03512436583797461	0.01361177840506092	-0.05300844585154149
-0.02469356204035065	-0.03265385851204778	0.01597505688952647	-0.1253673232884217
-0.008591036207645002	-0.007804786467558717	-0.008491562216134476	-0.09156493619309797
0.00722237291153152	0.005491833297961647	-0.02412404452516435	0.0210566709056503
0.002638798721954079	-0.0128195659598231	-0.02871237030359066	0.120598594110657
-0.0002355337525843307	-0.01442185416229082	0.001425665745109333	0.08916953124795778
-0.0004981059729946122	-0.002321724801935802	0.031813869068262	-0.01155533844012267
0.007274314392772676	-0.00966581398059106	0.001115307327831854	-0.07336796711307678
0.02875658398185722	0.0005889379896426195	-0.0007415928475935616	-0.142646275569713
0.03084585878670658	-0.000295416039464633	-0.02729608184491426	-0.1712381773602965
0.02573237901380813	-0.002593184841952713	-0.04410886639246499	-0.1125658042595836
0.02503069231948451	-0.01003902676994606	-0.06927113752995626	-0.02933989607171046
0.01204086038129929	-0.005148401461828373	-0.04195882454498171	0.009531236185586931
-0.009407811986362756	-0.02427847557759792	-0.04618448329669522	0.09465824312493039
-0.00675277137519244	-0.03142994715989426	-0.01304182158805471	0.04574669678707122
0.002918634033974557	-0.002838995891803086	-0.00263868116056909	-0.00762475479600265
-0.02154351951995452	0.02108449191697869	0.07985781961471947	-0.04873800267302724
-0.05560010935976945	0.03574658165071902	0.03891101772485056	-0.04806976249696757
-0.05143126398508782	0.0223446804603074	0.03174281898485368	-0.0379337701136719
-0.02852724188606851	-0.0102540838649637	0.06086711967784773	-0.01298511289617176
0.0001337702794271341	-0.004302721226642314	0.07006101350590889	0.03110800940075142
0.008956720384666312	-0.005482742840463873	0.05089487663466558	0.05049544182879003
-0.01870650198388516	0.006094727576708318	0.01943978526544679	0.04680699529349103
0.002768659472602402	0.02466052377508038	0.04333422540025347	0.0525552940640793
0.005718700793052293	0.01360256114868377	0.08359083210190174	0.02182360175573603
-0.007784732997441878	-0.02079245160576957	-0.003373094101389525	0.007378787227851194
-0.009513126208323845	-0.01383236175652141	-0.08545670891882516	-0.006771940161214358
-0.009367349092969462	-0.004925245852763965	-0.03946466277260568	0.06942157063743629
0.005345602692805975	-0.0002060723948467282	-0.00503698350301034	0.1193464950946196
0.005631468025038264	0.003759900541799731	0.01029784683835414	0.0930612524293757
-0.0004803516370916308	-0.01006163999531817	0.02623856744329514	0.03429563337843255
0.00262060850416467	-0.02223230218765928	-0.007816790820665716	-0.0670748807465061
-0.00474494576895119	-0.03757414586736336	-0.03546660235269548	-0.07108573947555508
-0.003933997873480906	-0.03480059291094847	-0.03846793436219947	-0.0563399764609079
0.0007119166950220509	-0.03208533371427054	-0.03565245060786006	-0.021691935817309
0.01403710999779009	-0.01794981700434016	-0.0422244540809327	-0.004690539252797318
0.007532246304366404	-0.03736591208862343	-0.01000497106439088	0.01759989238857743
0.009185898979353971	-0.05016423277138627	-0.01967490669267211	0.02420765544028413
0.01152832794141903	-0.02758270970796358	-0.04410094057632569	0.01973855117175652
0.01982892504493462	0.008826303945531295	-0.04667602883466053	0.002376657225848621
0.0291961874945453	0.01268175411910201	-0.02734168580094139	0.01377440078929273
0.02305003718765654	0.005309275968995488	0.02750313878992289	0.03294463243662242
0.01487240269470921	0.01926849708582448	0.02833568004546983	0.03526763998946832
0.01826405709720787	0.06372194476439506	0.02317048531749008	-0.004942349227290595
0.0343692306138234	0.09414421960150827	0.01385231855906708	-0.004483443032301695
0.03586882799115013	0.07663814585705117	0.02287402790677376	-0.009609230847471825
0.03015735940741093	0.04797203027361244	0.01682066660888587	-0.04152232342759296
0.006419218003203337	0.0154219970631147	-0.008494402662539853	-0.01844224400527633
-0.001017847880863898	-0.009990524430607661	-0.004383057343447697	0.01542152221039775
-0.01366714066977558	-0.03778244520074894	-0.01002126720795028	0.003328715274891139
-0.02819796607373013	-0.04639328311552531	-0.02938835434491701	0.02623699188258982
-0.02410239059157894	-0.03877004209715586	-0.01379805034220414	0.02818383909954789
-0.009162416550392394	-0.0289542086483227	0.04611762474466299	-0.008149184285807312
0.001676579104072522	-0.006842168483161986	0.04394709141265297	0.008194985280525402
0.01522904333558862	0.006302497735988244	0.02422844318247061	0.04909748115262514
0.0185343220081666	0.02188001858841552	-0.002181911517734533	0.05760940499329445
0.00765704230454031	0.02143052616126189	-0.008092337821325474	0.02490706426855938
-0.0007663953450276745	-0.0008185033600093304	-0.01477063929758884	-0.006866021571935544
0.002938475186994939	0.0138700217478043	-0.02375278135621013	-0.06413862645202768
0.006932608215597347	0.0217210251551419	0.01837070964489757	-0.07782037805123243
0.0007938138725138006	0.03131616693155309	0.03794585309355301	-0.06895064856332721
0.009890018550322937	0.03750930732156438	0.04830294620421262	-0.03118019560048785
-0.001302219211223707	0.03071168056299679	0.04127499251165021	-0.001893577229601476
-0.02816140120601741	0.005375097136711195	0.03100074317074636	0.007127613842267282
-0.0181508416076635	-0.002684839607887491	-0.004572640639237539	0.02548333855412051
-0.01949674952160147	-0.01141678873575677	-0.02001688457550877	0.02295275832561281
-0.02124235919016642	-0.009475779923631389	-0.006617761283221543	0.02330984471211539
-0.02325310205289824	-0.01090676816146839	-0.007739050293674089	0.008979153172188042
-0.01925668021555181	-0.001714605291384916	-0.05089607360029405	-0.007897032755875074
-0.01221942798472908	0.007888639402518518	-0.04213505347427534	-0.01971923505018439
0.003414582095402094	-0.003262874467269266	-0.0456487237072908	0.004450520929808302
-0.001928776868016332	-0.01935609253223971	-0.02259580989849311	0.006478990006040113
-0.00274143583481231	-0.0272257533579968	-0.01800067340520231	0.008709304731583222
0.005233964396648529	-0.03698382253604388	-0.03096811660942808	0.06493088220535564
0.003548855638311011	-0.02573889309510284	-0.02629695724797282	0.07115252976536375
0.001797263771426739	-0.01022026367514427	0.008594924377975887	0.0645616617715901
0.01438309597486198	0.0242170276948236	-0.009859672464575796	0.07973894965557929
0.02312365633303225	0.03159259002876848	-0.01944919209115683	0.004450126076181072
0.02718649212110478	0.01527324408018134	-0.003109795940088036	-0.06065049715901061
0.008629385858263821	0.003781824929860479	0.03764028136355628	-0.1127773903229883
-0.0051649160465727	0.001317844181189475	0.02120804091089927	-0.04876509560085009
-0.01770708151532509	-0.008808096922998694	0.02776574372200694	-0.07188706426808295
-0.02886100758605136	-0.02846277841075373	0.08543668213891523	-0.1439135501989781
-0.02692394478583133	-0.01992377293248564	0.02863702596413317	-0.09784880846930978
-0.01917794431433068	-0.004248483118625346	-0.02048468800242026	-0.004336726584130752
-0.01251848673301161	0.0004676592742021608	-0.005577109633824446	0.01156723305909067
0.005620909113257047	0.01784995196924619	0.05305370531155167	0.03644371898455696
-0.002240061723361697	0.0200731686155479	0.02800977079576814	0.09511047013570104
-0.003356527352546733	0.02212078927569185	-0.0175171748704166	0.01459906437898667
0.006463822112766201	0.02086680954950345	-0.01181990860330856	-0.04183503310211055
0.0154904969776532	0.02179903042967422	-0.0167917264790382	-0.02178403735055384
0.02016974677268725	0.008192979386077423	-0.03933164545024877	0.04680815500609731
0.01870065284876358	-0.01348767404282606	0.004904128484368995	0.06971482574759941
0.01287886506637369	-0.02780142587041267	0.01508004357201033	0.04230468329310314
0.007058994933918622	-0.02592366689184268	0.03869602881430018	0.03911965639059452
0.002092705449377083	-0.02813913003146434	0.03951055830837618	-0.02032909979070021
-0.007993131078703281	-0.04033854969946971	0.03604052552278809	-0.04800821530206221
-0.005707179657329097	-0.04146852633107272	-0.002153171244385834	-0.05213882722966086
-0.01598049207595514	-0.04144372246264324	-0.01495504235440243	-0.0003150552961898746
-0.03011303342272132	-0.02897405938247186	-0.004168475362839327	-0.002588316337582135
-0.0466479807696573	-0.02867435116666802	-0.01403077011754098	-0.0217625504000049
-0.03029650768408076	-0.03060559658107695	-0.01189911109763256	-0.03143893459791246
-0.02874325661554436	-0.007006012344295323	-0.01773756146547843	-0.03862187790688269
-0.02763096177789049	0.02670652218384051	-0.01069072606758257	-0.0341258895166093
-0.0316274354995647	0.03052963790783426	-0.03717688373193447	-0.02180577042159353
-0.01912914274094167	0.02919530003151975	-0.05085527319471755	-0.01777262665379477
-0.006348626268894204	0.0109199196169425	-0.04083742408968799	0.006963817651475077
0.002820535498628844	-0.004434041755672007	-0.07119804008098804	0.008200999621722053
0.01603793512077328	-0.002968966040150601	-0.08478401291492012	0.0072493644231343
0.01894145700730208	0.006321346508195055	0.01016705627541911	0.03102493608650308
0.02903873702627537	0.005199026996339189	0.01186356325529908	0.03647207522056582
0.03321351701530939	0.02513174623906334	-0.02729588812800072	0.02525519159540293
0.03748131531806551	0.05367626298270572	0.06946066772531106	0.04305132190898518
0.03387834961902799	0.05004153481412168	0.07447351180541723	-0.0003202639662772397
-0.01266879359634849	0.01729959864440471	0.07641517960571984	-0.009630851397077608
-0.003012469985060851	-0.006356528168008624	0.08067926543053534	0.01076363555401698
0.003467574920547778	-0.01101485784807463	0.03343355479051759	-0.01797898907896617
-0.003375553912095753	-0.01912937667976336	0.002248636735111317	-0.03335909395066153
-0.005838538947194297	0.004159319880339655	0.01611374239672285	-0.01394072798554058
-0.01190997056181873	0.01244553972639292	-0.01409370637662593	-0.007464396720273287
0.00513960989525237	0.005161985730714483	-0.0162881741088166	0.0209017769586044
0.01023162415761215	-0.00896929328781667	0.01696179483492092	0.02887879074842954
-0.006740588131668895	-0.002821803440184658	-0.04155234084352472	0.01972467996047477
0.0011249406211215	0.02159972159677523	-0.03713068830583789	0.02372278023373811
0.00329158400496634	0.04258940787153347	0.0009179515729573085	0.007577246277150935
0.0003830399997104458	0.01090811234091525	-0.0243878821621592	0.0002726890735464426
0.005766282914015821	0.003558223109753102	-0.02360715345817951	-0.01009266880859016
0.01921695475334025	0.0183145450145286	0.04759546056410357	-0.01613766933141868
0.02484077130649594	0.01823838931995108	0.01756031118664854	-0.01161061472892111
0.03844829119240618	0.02861429084355597	-0.03038212383513753	0.004701120308555464
0.03816280527491352	0.02741711529429942	-0.04052857967724452	0.01520504183914542
0.02549571936976483	0.008387134646406514	-0.05101373016546999	0.00462143051645191
0.01908131945621976	-0.002961300771754416	-0.002983924301204861	0.02877995345280715
0.01247546017951306	-0.0009361876028647939	0.03433615245757012	0.05106111416978806
0.001847945076266474	0.01649748193256668	0.05425319731853784	0.1378167774631554
-0.00454189244301607	-0.01247275575326322	0.01406190284484078	0.08765753455785687
-0.01404169742378298	-0.01832136709245932	0.03258653121792194	0.003926369628220698
-0.01067989153646458	0.0008399962956619148	-0.03096312210740469	0.01203299996253953
0.001442369524935392	0.031992863559149	-0.05748825688798864	0.0555686855117465
0.007557975872517452	0.01785404041193324	-0.05434421246772352	0.04748262680669646
0.007226151742540733	-0.01798379312302455	-0.03912853248833001	0.02250499685408705
0.01639128580738346	-0.03800416850449687	-0.0108519028749733	-0.002761844278558278
0.01166800993406449	-0.04211336298329334	0.01194692611440572	-0.1007263490906941
0.006739895854112943	-0.04813917152296325	0.07419873716614438	-0.1257661552083986
0.00583963486891471	-0.03286330577784869	0.06124544854108073	-0.1132266524627168
0.000729185627367031	-0.02552982323439158	0.05592779212052178	-0.09141472845896995
-0.01309146823420455	-0.02291268380515666	0.02528371968394845	-0.09564333171698221
-0.0166517336989844	-0.03016201309344932	0.0110608565753441	-0.05668658307080066
-0.005908788449493657	-0.01554685594974602	-0.03388911802839913	-0.03750109969767208
-0.01358131094145848	-0.01350526644271761	-0.01001285625176637	-0.06148527553523037
-0.02838042934066884	-0.01552502580045693	0.002992956734844517	-0.06532920262338775
-0.03231793452027488	-0.01351969587808587	0.01568463472689815	0.02315690229884284
-0.02537969634538671	0.002662021649312172	0.005429313599371039	0.09870172632345892
-0.01387626089679503	0.02853663239782651	-0.006185812464939084	0.02930955850069068
0.01330075359519611	0.03371399784149153	-0.02093398051813261	0.08224056023939864
0.01399722297687814	0.0157351846229739	-0.01453779898968986	0.06920231285982605
0.003483566137056995	-0.0001209698846496404	-0.005005980830111662	0.03823545783633553
0.002816823807586238	0.0008034890848583752	-0.01337668529124993	0.04061853334235924
0.002141055375440437	0.02017566419161407	0.001250689495994622	-0.02167855794206767
0.004200886436516174	0.01307052762611458	-0.0009073482164380208	-0.02229169900838323
-0.02191674635184911	-0.05134799331303964	-0.005498450362106347	0.05847082261103974
-0.03261718496462733	-0.03012104320996134	-0.008968402576559639	0.09539379830401046
-0.005690941564459949	0.009534467585999941	-0.04198390610853854	0.09108720892768547
-0.002683520850824781	0.0251929877376281	-0.05179788871981331	0.09846643605998942
0.01895968660537594	0.05029528027289214	-0.02186836545503588	0.02488186855620977
0.02677135983023303	0.03731178607475622	0.004667546101226413	6.551438090526026e-05
0.0260845909124429	0.01357278212194645	0.006389851042463171	-0.04433809766096914
0.02394665012314173	-0.008108597693109877	-0.02101281078444107	-0.08001798459544718
0.01506058573954046	7.242620833600735e-05	-0.037076311307406	-0.04998191967316433
-0.01123305685596603	-0.01633732697659146	-0.01762259310972859	-0.07237090193722683
-0.03498386651902469	-0.03380128686799352	0.02547027802536686	-0.07975229482799917
-0.04901581428415761	-0.03819283147016204	0.03754631883571027	-0.07618359767271046
-0.05467669562606718	-0.03509164943949677	-0.01261942350269147	-0.0588923944914104
-0.03417384756569312	-0.03315906545860971	-0.02199442128577058	-0.057802924050833
-0.01250451363763532	-0.03135904487147591	-0.01626696624855159	-0.06252788865406364
-0.02653455803635093	-0.02482397311168988	-0.009612211413501855	-0.05417024030383197
-0.04946614658864304	-0.02429356957783336	0.01465053055923388	-0.006938266531144069
-0.01747791165476136	-0.01490492841519621	0.01938995590617647	0.03457344690736734
-0.008518383180338571	-0.01392659198173938	-0.009264553544325763	0.01026957597255211
-0.005494930955365475	0.004481882879972221	-0.01030905186500069	0.02538433684677157
0.003658361041434802	0.03222210592335643	0.02848295305232192	0.0194792903596101
0.01359306388597016	0.02778164002556664	0.06160516449107139	0.03076285560394653
0.01937645902768429	0.0425200137624738	0.06348572892803778	-0.009828734382247475
0.01633018929548264	0.04287535857724518	0.03708293251889941	0.02536818680500327
0.01441213588181704	0.03911169467240885	-0.01800770513944008	0.03161249046686027
0.008373183580438766	0.02023579516049577	-0.02107228013692303	0.03805082925693876
0.00824995200757481	0.006554794072752703	-0.02213632476667851	0.02826229762498768
0.0147133663703687	-0.007286631231915051	-0.005257577559559519	0.03868855037636773
0.01976795295359379	-0.003831767836696712	0.02377968751175037	0.04004056053482982
0.01769280429194447	-0.005900108766313025	0.05782255406344085	0.006619682998467337
0.01536027215189058	-0.01010405638861967	0.04814113524556762	-0.0238513796435904
0.02105622375503154	-0.01730030571609648	0.008709869800128486	-0.01436839555009423
0.02477733054510665	-0.0379640723646946	-0.02274314107771593	-0.008990286396504558
0.0228697570938499	-0.0598217405886442	-0.003023285495876992	0.01142539520944122
0.01327487630297014	-0.04800547033957837	-0.05139598675188859	-0.01344389033555783
-0.01767548330719805	-0.0298484416243566	-0.05384416225676405	-0.02720680908614262
-0.0219956945047597	-0.02589831645236974	-0.01736515603478395	-0.04280625093106546
-0.01640824425025419	-0.007593986748879416	-0.07337189198977744	-0.0605132386705866
0.01038561682504692	0.06511790838247905	-0.03778947096856883	-0.04998835303708134
-0.004455218580787592	0.06920948869448887	0.05970342969418601	-0.008866540354377875
-0.009348862648212216	0.06586815337539201	0.0001354082870704921	0.01561530918008239
-0.005696012905484379	0.09741221384618089	-0.0116574648221989	0.07050533724874547
-0.005113806491253182	0.06781053342085674	0.05621277704580444	0.1668372750564507
0.001245818942923645	0.02702395098997504	0.07759167791742423	0.1355847423267141
-0.007069733918508343	-0.006311353776417141	0.1352465024064836	-0.02623506620220984
-0.01064267014952936	-0.0155965313421581	0.08386417097803994	-0.07729503504250593
-0.005847876696208705	-0.02583761955728079	0.04939586970826361	-0.04775298071608466
0.008571557919573066	-0.01213883922158722	-0.004752178954503744	-0.08006143982342578
0.02698366581196191	0.002864670664027849	-0.05913730746264055	-0.07783127575965547
0.02268365495777981	0.0111383037711047	-0.06293688474431632	-0.06204366871012228
0.01832900647247289	0.005720469391014285	-0.01227327860469557	-0.02004991045672684
0.02297948181021614	-0.0003009264094814373	0.004501162622708957	0.04709510759280485
0.02362153905263321	-0.01626206548081798	-0.01092125877594653	0.0867773473283114
0.01709319389943218	-0.02632674923706091	-0.02314921468308287	0.06616921104619766
0.02101627804684766	-0.009318596346156765	-0.03993378338799436	0.01979229086761156
0.01076992422156421	-0.002914651022961619	-0.06552076567314473	-0.02062738224796321
0.01026398626463818	-0.002946573554756057	-0.07224768511921141	-0.03607667086787499
0.0003212519077183904	0.005760535797883487	-0.0705571285838133	-0.07098021478927145
-0.01295944511082618	0.003920560465899408	-0.0319712771113391	-0.02902413922137241
0.0124807756318066	-0.005500135605221279	-0.006674855503103472	0.01173921548066808
0.01505716210948546	-0.01765997788244704	0.05236942646444118	0.04408090695062676
0.01486413567498368	-0.0226412554125441	0.0826368510431755	0.09663252849000099
0.004855610366307796	-0.02566998796520463	0.05858312449960078	0.07486681441551568
-0.01055772840740907	-0.03640560394178651	0.03206012214443746	0.03929701188154004
0.001556894871823624	-0.002705867235042396	-0.0166772068686082	0.003510006927206895
0.006001872656853084	0.02116460272527458	-0.07661212798200062	-0.07075727793701973
0.001356299233784922	0.0210626721153796	-0.05923487468969177	-0.06442618147589968
-0.007506374976013383	0.02435318352067743	-0.009918519031698936	0.01333436733884292
-0.01942220611622094	0.03358104231887869	0.03529394908608233	-0.03412484447897476
-0.03425759919181986	0.03692202415271921	0.08219490564412722	-0.09779157393766821
-0.01567583095951678	0.05126167105224624	0.05281468184852765	-0.008270435389533731
0.003106485876339061	0.07053221454011931	0.04510497106022061	0.1171065135335082
-0.003744203727311764	0.0674046302192239	0.008123279897429411	0.09923746092944791
-0.006741823659966563	0.03765525840309815	-0.013275529334557	0.07213267848086699
0.004629731402937396	0.007145987783228044	-0.02917763813738778	0.03842412496738454
0.006588859156347057	-0.008173306918999835	-0.02242532610135392	0.00825936155682825
-0.00113869803019962	-0.01648616091255238	-0.01961238352190739	-0.1011111542282192
-0.01030323518961441	-0.03397059034729263	-0.01770359641418233	-0.1123159127793815
-0.01955487479683252	-0.05207495922457118	-0.01672359346828753	-0.08356609903748968
-0.01911845339924403	-0.06544359760343442	0.003521819324344749	0.01137382269315496
-0.03156140805666331	-0.06875336717928235	-0.01024449229451867	0.04016796717769779
-0.03144781558211594	-0.06326134348164369	-0.0422284243266695	-0.002119604184202026
-0.02532640906032953	-0.05700401954244061	-0.04741372940243251	0.007675959611463327
-0.004820070173045381	-0.02764643839122117	-0.04902196133427738	0.0413023718495719
0.01401705449513527	0.01053110415126135	-0.0349252784965426	0.03844140379323951
0.009687743355156122	0.03540651444662671	-0.002265374694964139	0.03094347651223531
0.003241545479919882	0.02664003379239877	-0.02930271302139038	0.03354204303193925
0.001537207286752136	0.0152491862756744	-0.02787783158416219	0.02862312651124442
0.0001372593553778266	-0.0274114262357973	-0.03525524246114763	0.002107220123098294
0.01090274952390376	-0.04784801076294003	-0.02726072062979852	-0.03021678077094051
0.02065329757027871	-0.03768104850762766	0.03856991192157611	-0.04275127701729367
0.01363576443061754	-0.03723205044597384	0.124940467374586	-0.04576552707700894
0.00230272470219412	-0.0261651785066157	0.07773549640372465	-0.03171523732834206
0.01707297703394246	0.01625216172470791	0.05363791729941865	0.0118701914363994
0.03520118009872304	0.03028772263044333	0.06041984620841919	0.00241582828468337
0.02320125772483337	0.04008125062807791	0.02715260054706742	0.03276895484750035
-0.01039764205477734	0.02480239733222816	0.0009034991539495273	0.0622971349340266
0.004993982315463355	0.02045529557212771	0.004777366177416611	0.02403381177099646
0.009263514456186086	0.005802807416169787	0.002020807212324419	-0.0170181277768603
0.002563006866010022	-0.006464641281312873	-0.04180217793120766	-0.02851094081681246
-0.01967131982684662	-0.003973259449728549	-0.04200290108030965	-0.04017844618139619
-0.05487444142912459	-0.01185302109441219	-0.09322375572899494	-0.03303561775840468
-0.06374359387034827	-0.01387370718818655	-0.08826017839969169	-0.02105707661565082
-0.06647635382033068	-0.005030170186981501	-0.0556478481870674	0.02534907925385357
-0.02151637235165502	-0.0004872930785009776	-0.03090155672379684	0.06002171262672833
0.004817610453091118	-0.005828853805586098	0.05576529137942753	0.05262984855254244
0.01015890507701474	-0.01141214475114366	0.1016870365697949	0.0385596703639076
0.009890669505746272	-0.01909343005158751	0.06910591057977319	-0.01144212670833107
-0.001422225202517693	-0.01950664883248538	-0.01998424122560594	-0.053569384254222
-0.01065872301979906	-0.02132069673808852	-0.02993799293170503	-0.02486955717689297
-0.01794236398740712	-0.02662006991232602	-0.01659122435157389	-0.007236294801943363
-0.01254614644005539	-0.0170188196984015	0.01574072451343929	0.01144997327710853
-0.03053079011869224	0.009699641234244522	0.06340903126151233	0.02995555735486776
-0.02891544046091612	0.01898080787577354	0.03194895547954237	0.03721007477164292
-0.01518117581902868	0.009115879812309897	0.01953748852140005	0.0003518347918202288
-7.524540079188768e-05	-0.002531634296086255	0.004165302872955032	-0.08104929174641382
0.005563244502687394	-0.01792054986839868	0.02861296862003369	-0.07424353430829271
0.01524732421206935	0.008268677591921765	0.03957580009740558	-0.01270648394210484
0.02649171467145453	0.04842690639754676	0.02118257614262352	0.02626055951558406
0.0219628999722305	0.05380917880779055	0.00474422793476642	0.02115118539483828
0.04226924279777518	0.05374596986861081	0.01541399252462806	0.01890926094729705
0.05898423266728392	0.04443444447634504	-0.01862762770627351	0.001696338755364558
0.05702883900871877	0.02103154253399497	-0.0751134184924571	0.02055245021717598
0.03646596604415848	-0.00634332687699995	-0.07000216272176349	0.02048875985732672
-0.003284526525728183	-0.02724268626651346	-0.03122006982181257	0.03876274332473018
-0.01534607726982213	-0.03894885780377855	-0.02614650674990049	-0.005041059806223174
0.003562964491317964	-0.05011896531113869	-0.01214125128742838	-0.06946869039217429
0.005812591240920355	-0.0604557340612218	0.04513389388335369	-0.08291889945158891
-0.003795278605602113	-0.07413981088372358	0.03474080649425201	-0.1085416212518578
-0.0199168745968097	-0.05663693054504868	0.004958032134291181	-0.09992123720448966
-0.0207779654571844	-0.01789879283019761	-0.03456307570887245	-0.03773217657129662
-0.01272907801310726	0.04576933329184205	-0.02780537110193804	-0.004867084984957054
-0.002671922088854264	0.04054859932130403	-0.02575832993876674	-0.01439206260613471
0.002489146031125425	0.03178237081767923	-0.02514757267428072	-0.05034973868931182
0.01111352032424178	0.06808085406910958	0.008360913768777976	-0.06272321922947723
0.003337570699059736	0.1178245271395075	0.03793800435695088	-0.05563758805494352
0.0002483411663969869	0.0932567013133325	0.03147631453945872	-0.0233790496818563
0.02116751279480521	0.06057943042825022	0.03554554306859023	0.02374940811469727
0.03441509650975253	0.06637286971849043	0.04251591240402158	0.1426542858493337
0.04289498496308645	0.04099784164120267	0.009607441074848261	0.09620073382674502
0.04932801135299885	0.01666515289017294	-0.008794565686504732	0.05951651277980501
0.04857436003967714	0.01878949145171935	-0.004850283750723354	0.0474783846539598
0.02460557903119773	0.01390995299439206	-0.009310173907249822	0.03310421202530591
0.002014808697518013	0.007610631520664258	-0.00632584273972255	0.05562586065865946
-0.005083530221703244	0.0210414818746297	0.03341077144760034	0.04758232811523416
-0.01911688618725128	0.009266605082812312	0.04136814751746561	0.04239975970477664
-0.03367909603025365	-0.01189256227317975	0.04674270700350966	0.02297968476194523
-0.03937102836214259	-0.03184539106152053	0.0002842404754106321	0.02165028347656959
-0.02389816284187567	-0.03796062362407718	-0.0601452744365859	0.03537449429328945
-0.007187222125211977	-0.04401843948074656	-0.08055472006262857	0.01953527118430989
0.002967983096612514	-0.03994335148890921	-0.08920468802917839	0.01986868366566691
-0.0005496832880140535	-0.03175348278704051	-0.02351913619681069	-0.003894170415747593
0.0007338043333099365	-0.0395376041506535	0.06397276533150492	-0.06973613132969222
-0.003463027056327127	-0.03957789218486184	0.06409259619502447	-0.08242350751359194
-0.003307531504753677	-0.01604507840401376	0.06341127433892417	-0.04792418790224186
0.0004813295768224606	-0.004373907641688535	0.04653685333656669	-0.0400268116613751
0.01367766999995304	-0.004165945218603307	-0.05631222693838473	-0.0583933628718757
0.02342229699943668	-0.01618628885044007	-0.07809725596116825	0.03655370904853214
0.01151306295031077	-0.02249774899597483	-0.09922873427425147	0.07193543986057425
-0.009316399567988316	-0.02846479492703477	-0.07923784726451946	0.006292312999029722
-0.01564999192742474	-0.03647616480931726	0.0111848164407696	-0.007496483899582537
-0.01250666394845263	-0.02771571559967913	0.06885990844601664	0.01092281698839844
-0.01392663013198472	-0.01578932703107842	0.06992247887085215	0.01001149305715131
-0.02661939410794072	-0.02553165178626305	0.04766947934788912	-0.01467232291833331
-0.03845095669916104	-0.03737353520101861	-0.03478220302545428	-0.03071618672113514
-0.02636714563738772	-0.02752027801668825	-0.01306391006410543	-0.04519307945567808
-0.03010169079218523	-0.01957898032076397	0.05890121188534576	-0.06802774225866383
-0.0206820153867097	-0.01354938445979497	0.07476711171620298	-0.06469016260476908
-0.002466413296765054	-0.005309104099068154	-0.00211698182467128	-0.06505032456398255
0.002648376129914242	-0.006408851806978173	0.008626180771739492	0.0397022673988703
0.01058539507913245	-0.0005249529170616375	0.003444966507383644	0.07800446189645154
0.02054387525728188	-0.0002981026669874946	-0.005340652082932401	0.01783964587674985
0.01297169517077468	0.009204698648390668	-0.002377488198376568	0.04140917511657327
0.01500490792955943	0.01271811167380721	-0.009699476351733719	0.04350408423559714
0.008609555144490062	0.001613585663786481	-0.02037196487814189	0.0095330436045235
0.009405204598729292	0.01587619556298837	-0.0669441759499874	0.03239735439118104
0.006126198551819164	0.0323013935590036	-0.07654765268154058	0.1095669163241651
-0.003716266901349452	0.03133253263760867	-0.03691606094902165	0.06434862894143761
-0.03054280221366804	0.009770023759320711	-0.01009976064132434	0.05670902028858187
-0.03914578764568574	-0.004634775733264186	-0.005424291145249979	0.06209358139742079
-0.008222700523287675	-0.004484623628230626	0.08781400952151043	0.02690956793585235
-0.0287717877491082	-0.01710385645593778	0.08927406717074676	-0.004505315394340686
-0.04069299077204256	-0.02444991658560398	0.05239281594780063	-0.02032506939324473
-0.02547153611289584	-0.03995530927621174	-0.009781214652911853	-0.0529855853490314
-0.009198722208999196	-0.04436206303705001	-0.04171928292518159	-0.05629371417459589
-0.001504371875400501	-0.02988907546263166	-0.02541469190141341	-0.05310222168412065
0.01037881312419983	-0.001900067748835259	0.01933649361110317	-0.0642251646286519
0.02357351077168261	0.02251926918508392	0.001857779782890949	-0.05904230852630991
0.03179409298657727	0.03182031461449501	-0.02358524988014837	-0.01311148900368933
0.05562402210730014	0.04341681800492311	-0.05817524014665933	0.04527344318053697
0.06831389741636307	0.07181412074528028	-0.02128824082609872	0.1074162931827718
0.07270542792662391	0.07255548926474381	0.02123848896715879	0.159559839393318
0.06217788410254389	0.05407275926086924	-0.003224852562212694	0.0728326747204099
0.04056701685235158	0.03803022153156339	-0.03969420976509666	-0.05638440446755658
0.02223389527661313	0.04815343598034402	-0.02747937030326482	-0.05681125727128174
-0.008430695902461099	0.0438891486467365	0.02060956384421971	-0.08423743115261897
-0.02997163525334038	0.01060589167923034	0.001185586120501804	-0.05361255810026298
-0.05021769809818739	-0.0255369661195124	-0.06018046972865049	-0.06559876451406553
-0.07392849875647843	-0.03642708127687016	-0.007281675306750153	-0.03073855300042677
-0.1042723813350147	-0.0409204832722411	0.01996910453877417	0.01854840110347638
-0.09090913134082201	-0.05481128493500873	-0.03345325324764502	-0.05726003838403941
-0.0689550066933715	-0.04522651204527285	-0.01132985477167494	-0.04639260645231658
-0.02377094929656987	-0.02439450630398557	-0.04451355292327898	-0.01809673874931869
0.00533084815127849	0.01427459544298492	-0.0533715121750442	-0.01726006299772778
0.0169945545509314	0.06223725793762399	-0.08505411413738022	-0.005750938461405636
0.02308682573515835	0.08736503639291905	-0.02973037173441919	0.01620530335073525
0.01843545265689759	0.03194038225804137	0.04329169386379756	0.03708660950227485
0.01837877859547923	0.01396740834128437	0.08211813634012831	0.1104410551963187
0.0252032275582286	0.009985967426750559	0.06611842803748945	0.1538423747212166
0.03435313442392027	-0.01092581855736509	0.1432366645022295	0.1335191460152524
0.03001405213687377	-0.01624578262866398	0.09434683351715961	0.1062382725122467
0.003211754038976181	-0.008669523121620473	0.05010539262062186	-0.00193743979111388
0.02371760184013051	0.0392632699958049	0.01891894426380253	-0.09738291577091072
0.03005552310764292	0.03085260984170488	-0.02255768806018128	-0.1177112021185646
0.03099778533488024	0.006930668592727989	-0.04208323895435439	-0.1285634250089094
0.03078035305879979	-0.001122095170948858	-0.03678169802001539	-0.1467051612481516
0.0279537210131322	-0.02112523473166397	0.0003236933258736549	-0.1250670632746316
0.01859747845659072	-0.04198833621486434	0.008613013059055123	-0.1142350394515732
0.008923073615698987	-0.05671452371916762	0.03375872389053391	-0.07661801104800124
0.002280320826268011	-0.04811099502544033	0.01848966370657126	-0.05115755442180686
0.004705414790558239	-0.04257408909609169	0.003659073229620224	-0.02483622897954912
-0.01024522014415077	-0.02274673422859861	-0.001225739481713697	0.003875804768662023
-0.003411730358768269	-0.009866885932387114	0.0008350075179234195	0.02314130665470902
-0.002758088439272826	-0.00576644482177553	-0.03056900853758338	0.03198252035061038
0.004653986109043699	0.01040056663702604	-0.01583058115687218	0.03057471682657756
0.01932422792791393	0.02453516701400046	0.04290994616835035	0.03525748351254104
0.00181494867754295	0.02613205296320742	0.03779838968495056	0.02969019987042261
-0.03490234038103061	0.04957275693840221	0.03666690223225415	0.03266682562420264
-0.03815557994127686	0.04129200978246682	0.01112831609884027	0.02468787304130097
-0.02763193496364823	0.02212534711580955	0.00155687868963314	0.01849723366929233
-0.02128180498696431	-0.01835036852335827	-0.05130059013900484	0.01458012446095863
-0.01362078438798183	-0.03705800219484532	-0.1275999509013766	-0.0004982937645167217
-0.02211734396904872	-0.04399771218405005	-0.1312244154719048	0.01533471425804399
-0.02315794427437063	-0.04173115960105368	-0.1165938138193096	0.01593093810047806
-0.02122253364175872	-0.03214126031562016	0.01129454917943697	0.03822167212522701
-0.01124282280381377	0.01771591589158361	0.1337035670689199	0.05491522518393688
-0.005963663071397765	-0.001153403896267183	0.1445659605243836	0.0758747756193548
0.01341866536031507	-0.009693006181852672	0.07611771781021397	0.04643565621036824
0.009372642657058228	-0.02076266943182832	0.08305273122553625	0.0349745143127874
0.008377235937731289	-0.0292058648714811	0.08048270618683899	0.04290066415788468
0.01408419647656609	-0.02170256717254507	0.04025552537353608	0.004661709198218096
0.02126640215777174	-0.01258195599871835	0.006431891176571174	0.01239137119935051
0.03392119225028058	-0.0008372405261380388	-0.06615902917883987	-0.008738171703178798
0.03068284665164232	-0.002377406337877165	-0.06710380757800961	-0.0312813147351531
0.02543472371130066	0.0004755025905516204	-0.02510948120205295	0.00166234032796721
0.02214811083150026	0.01616582503591611	0.0003409923166682231	0.03269108275849297
0.02012500474591013	0.01838061499177468	0.003379390883706467	0.01067652740492001
0.01035423543594918	0.01681788932863583	-0.01587920132283014	0.003942914097653108
-0.01740000911438583	-0.004759282990381903	-0.01015081749703347	0.0390646960101389
-0.02683474461274153	-0.01506739434915799	-0.03752324386126808	-0.06611917348916621
-0.0393519076028384	-0.03000396790788553	-0.07119333155215872	-0.129414183759617
-0.02573768658739562	-0.0445220637367287	-0.03998073499387678	0.01728287730721592
0.004931692784320161	-0.03397153903550754	-0.0284278603775462	0.1135180544146108
0.02422166374687471	-0.006376048443683001	-0.01839423424796527	0.02246817439195888
0.04140317330682161	0.02757572880223748	0.03232064452815749	-0.01981656846762803
0.03375398324741578	0.02717381574241049	-0.03780816788214519	-0.03589206548277223
-0.001304970590657273	0.01679145242464319	-0.0796273728975492	-0.06774032165920831
-0.005381307782815639	0.03338031292901585	-0.05000891313076392	-0.04924764820319529
-0.006881575551926291	0.06580235589911383	-0.01267976681484801	0.01658564298042875
-0.03689899385399294	0.05060606232916066	-0.02242252975976689	0.1159540595721793
-0.03642435041263577	0.02672849407468155	0.006710043825026156	0.0796708531904496
-0.04021683027622246	0.02119885634654288	0.08448546731363313	0.008041945037418362
-0.03299208920862332	0.02366447035577558	0.04198018247069808	-0.04128269958604809
-0.009703568675242984	0.01879719584149591	0.009925602926013631	-0.05751226279008256
0.005550504276290684	0.01208550949998527	0.02557689926803764	-0.05238605431394316
-0.004221523230610853	-0.01340622929844686	0.00697515482778653	0.03331652341396565
-0.01868215451421816	-0.02174021916978694	-0.0007402838822972192	0.05548821659600024
-0.01228224840543474	-0.02634828293193617	0.00207249608182288	0.1086304266627166
0.003101586191637617	-0.03136870142825169	-0.01498320011382363	0.08733881882396469
0.009748909940735483	-0.0160833357330678	-0.03442128143816091	0.03350903856023097
0.007796074346958493	-0.02471451073378499	-0.07828042249912245	-0.02376090952134446
0.007742452778716882	-0.01834957098672135	-0.04948273176261933	-0.1292331326022523
0.01034280068137241	0.005779143483265123	0.05002959062477687	-0.1511449952370744
0.006272963079561719	0.009234791371439876	0.06538856392721959	-0.1479263926583547
-0.0006679129619855096	-0.01661899659107287	0.07074448384020654	-0.09569701766143252
0.002791805057341654	-0.01288360239943	0.04968722321432022	-0.06301637263970773
0.01685764653375415	-0.0188996307588415	0.04532302915728014	-0.04626023033310245
0.02396630279517774	-0.0159138860594084	0.02237571043722068	-0.02405129382827334
0.03910299598471088	0.0205220353167479	0.02292756120007414	0.003629175653802555
0.03309275628897727	0.04655636956261516	0.008913091753885365	0.07161277402725862
0.01528627725344119	0.06729112505013506	0.0232063480753937	0.1279514942382924
0.005084939172714478	0.04790908474579547	0.02586799866043654	0.09903610096230443
-0.00316858073404769	0.02710724356145227	-0.005022970974570946	0.01032952832604374
-0.01287398736141692	0.02301054442794714	-0.005371630793492702	-0.01874683731920198
-0.02491152092717593	0.02269097773209723	-0.05311318402649191	-0.09014965835222767
-0.03815963917010722	-0.01192082693640131	-0.1086878962206003	-0.07843398322501995
-0.01118820152076291	-0.02801499236111879	0.03971217486781781	-0.002460544109339263
0.009233156479557728	-0.02725601373439172	0.08781418403913048	-0.02381314906430281
0.01985216265345839	-0.03868013454836725	0.04557482326466083	-0.03298744296040423
0.02982716198884917	-0.04406827857168014	0.004810843254275922	-0.003815616842487597
0.01749646268814753	-0.05776351666868228	-0.01876038482842247	0.03432171062631
0.007424590468168383	-0.05860354051211891	-0.01723101495109782	0.07185153922933379
0.01880605590576948	-0.02298449079061698	-0.03626555824219029	0.06266715472875245
0.02816115981219206	0.04311534326393343	-0.07225351836730901	0.05762906523418442
-0.03287451118266089	0.0358124963490774	-0.04658895748590146	0.05018960518940659
-0.04502208693082792	0.03439930818198501	-0.03275957410840096	0.02160504062136213
-0.02880254695807911	0.03565860006026941	-0.05835299622579025	-0.04778922856392826
-0.02437410404536663	0.02223697497465314	-0.05541378991718516	-0.02807723103033175
-0.02464426602263842	0.001109327291283925	-0.03859411928704322	0.03589836037259957
-0.02723740069739848	-0.005422268988846756	-0.01901364018311415	-0.02873157968054122
-0.0286318789922115	-0.006167228295380196	-0.03529539958421952	-0.04714669387309552
-0.02803429388464978	-0.02530270046359996	0.03226735790441776	-0.00146152391187597
-0.03174516801743443	-0.02849885033789852	0.01820353404146793	-0.01280961612960223
-0.02465675302171428	-0.03167325892849609	-0.01460197061612923	-0.01643508764661631
-0.005854881921596756	-0.02521258702532083	0.02260501418201463	-0.0134642967810834
0.006512369921112995	-0.01078831737842251	0.06062196752622538	7.18938878123054e-05
0.009773447284742998	0.005644070839430407	0.02857000817205451	0.0166708953827715
0.006726935041275503	0.02482074307040284	0.003866912245041832	0.0309521794244725
0.00295120339995212	0.03185819030381612	-0.03368677429165141	0.02611703098802063
0.007869581831259732	0.002745315726308623	0.02009020192755828	0.03967387174101092
0.01444146517617692	-0.01472617364323847	0.0305305731783634	0.09823870976630764
0.02593005023648811	-0.0003786508781220312	0.01090358090157168	0.07814321353754032
0.02758955850026339	0.001717349130463298	-0.02083687160824961	0.02671178580357871
0.01102327516358629	-0.01861069956014611	-0.004372646810447507	0.03718323193079104
0.00989244465741747	-0.0287627677717244	-0.004875268244818654	-0.05285126159932133
0.01133169701406684	-0.02315666094108118	0.01411892426978466	-0.122006565748065
0.009419090236291679	-0.002136645825569799	0.02849494317933109	-0.1203983853248452
0.0005740190492026492	-0.002604401704762328	0.03309115048277458	-0.05661102416791063
-0.05249256496051417	-0.005098224837965426	0.0006238219275812448	-0.01392267859054596
-0.02122455204890636	0.01182418607244251	0.02210270753394841	0.03031967115080098
0.007358357181161508	0.03012254592780104	0.01916305068745818	0.05748826789960474
0.0110768967195771	0.03258063930110456	0.01581321116764036	0.02904656360147208
0.01344138017576347	0.02158447727157544	0.05043024946176738	0.06211124844706525
0.02273957223715868	0.01597893849541774	0.08740123850230945	0.06052334088481793
0.03513473052986171	0.02456151161926273	0.01655095427324842	-0.0005221932552366805
0.03653500822503539	0.02028074918738488	-0.0140143967129491	-0.03370683286190421
0.0298259365879404	-0.0001931852548825617	-0.0780840542464635	-0.07896560325301787
0.02687571584278631	-0.0009534267842678327	-0.06732503224138733	-0.06764621535344251
0.01232098805297307	-0.007786568870108141	-0.008432250029930503	-0.03578876271689691
0.01096638742924258	-0.000592168978555884	0.01815624570138802	0.002890422630797473
0.008249940727331817	0.01154533127838258	0.02022109300169529	0.01027528813377637
0.01238063650824328	0.006511752171818933	-0.01340365283895573	-0.01881735675916979
0.0059443388863688	-0.01384407830246434	0.01769615850896352	-0.02662776275195024
-0.02171773124489106	-0.0454649286633805	0.02192491678627215	-0.01728301498123893
-0.02734131590431179	-0.03351720499986625	0.01840300081934975	0.002157808177074734
-0.02454601328890845	-0.01659487011067158	0.006024931085514462	0.01308964428085006
-0.02574876783384825	-0.03167111325907045	0.04702627853755453	0.0275730384722996
-0.02508172128189274	-0.01258601425545067	0.03079652079462013	0.02694943535886809
-0.002466558859802921	0.02138314463148789	0.003241292238051648	0.07130670952164464
0.003144648143958648	0.02695829984629119	0.01291589725916508	0.08059767836540778
0.02239458796003612	0.00147684882652403	0.004216252262628456	0.06385726171731038
0.03753500706132622	0.006943830551330392	-0.1041898189971106	-0.006715889568511864
0.02740211304488732	0.0143717304320013	-0.08501904720832881	-0.0122344958247546
0.02327958032860145	0.03308699427074367	-0.01872007365971098	-0.02731550074574556
0.01432208934623487	0.0586553915278841	0.002352035204660316	-0.01049436793435535
0.00890727498568277	0.04426603912927376	-0.04907286951109469	-0.02554051197451665
0.00264489103342434	0.02849164092701518	0.04348789008501957	-0.01751441539909156
0.01506196289680772	0.02666173676934304	0.05027616396952313	-0.01607777130800844
-0.03762008087778242	-0.02539336132051753	0.04317365596052289	-0.0134272743123304
-0.03791838021856238	-0.04372458444897543	0.04859004897890251	-0.02526667394511676
-0.02336478564247342	-0.04439625274071064	0.05101032027002199	-0.002201456880044109
-0.00616407257160892	-0.003437403944027571	-0.01800020699919718	-0.002965021215758115
-0.006128346656104253	0.004019087340220502	-0.03794152288903867	-0.03101135104065614
0.0148904852600667	-0.001820111514874724	-0.01710007226946818	-0.04141988142489651
0.01419437982085033	-0.004333207150108927	-0.02277506287787932	-0.01822287375528171
0.01221488251856827	-0.0105537743062896	0.03394757043105978	0.0685968781328435
0.01027893274889945	-0.01396698300551448	0.03585060980298609	0.1585698403378693
0.01284515249286016	-0.037389427674486	0.01587661015632406	0.07328327941895264
0.01946516390228728	-0.03037749664260966	0.008296126930206843	0.08496205393856299
-0.01423949211370929	-0.02635695812408732	-0.01700889770982575	0.06628020514888172
-0.0299156555459199	-0.01550671165911684	-0.0007960424837477427	0.03139435459120468
-0.04019925156551672	-0.01606076433399462	-0.001756807203665417	0.03459004969870914
-0.1027875698051923	-0.005072461846624928	-0.05592706172643597	-0.04205282882432432
-0.07960289441959136	0.01582956368580788	-0.04819699983394193	-0.1088475920362256
-0.05486531477971005	0.03516495181338561	-0.02215939535915115	-0.115751511142608
-0.02526948863943826	0.06689831841413918	-0.001427021412771513	-0.0692762160567339
-0.002750936328550083	0.0604333800719969	-0.007740828092787227	-0.04126642625184275
0.02335256638631911	0.01794402791243484	-0.02550655390647628	0.008961592284987781
0.02645414124448726	0.004189462779763627	-0.001274361380699877	0.03474966677793009
0.02446125114922613	-0.02297669577581029	0.01423206477189707	0.02849460615454245
0.0300510616097203	-0.03353715000273573	0.004414697885938099	0.02014923870114379
0.02736575166472179	-0.02517056441686442	-0.01097491297795535	0.01570273527522742
0.008142462614392653	-0.02305544068610081	0.008548937881744909	0.01816327882264057
0.001554448841191158	-0.01889369341238568	0.02327612611860271	0.02095533746720855
0.005464248433741292	-0.0201983689072064	0.01614652214666756	0.02598750676747152
0.01491144697353229	-0.003813613329725114	-0.0007362606435506042	0.07828322623239381
0.02375090360200399	0.001728055248261387	-0.05475902416498002	0.06717843154193302
-0.007134588626899707	0.005278256279737018	-0.0884381765048876	0.06028689840021288
-0.02099612692030794	0.003494682727677214	-0.02094170545730743	0.01266909252260515
-0.02839590898514163	0.007759663153690801	0.04034752658634299	-0.1256840413272082
-0.01059689719253322	0.01296322275234585	-0.008564707926700194	-0.2014237761261023
-0.02870797597397965	-0.005403163262700079	-0.04080177100065348	-0.1773480354765385
-0.03058697756047518	-0.02117189252106605	-0.06370012672380168	-0.07492465822130365
-0.03330680728144126	-0.0291756494926609	-0.05004195343907911	-0.02502489428314448
-0.01087492034792075	-0.03009819055697438	-0.01611983681509141	-0.007186685128832741
0.01060957553947957	-0.03228922162807233	-0.01031838674620423	-0.008689189994336542
0.02701131389731153	-0.01822083083594898	-0.006559234668393056	-0.03977919437281333
0.0213263242991146	-0.03430650532811506	0.007554451866390703	-0.08613284644733321
0.01606914892053087	-0.02707802314601292	0.03016833689499051	-0.08632082210403325
0.01397060058162379	-0.01420023974951847	-0.0111526085872801	-0.04376197197754948
0.02036887754468545	0.02089107604649574	0.003083353771021844	-0.03987665153643102
0.03498102029363261	0.03683942267066458	0.0009517667038694943	0.03564670010772587
0.04839899266448377	0.05639234129815149	0.05377280503557061	0.1274879923777724
0.03088860890226776	0.04506952965291108	0.1124100687146472	0.094358178901045
0.01836372889459039	0.03504542121487524	0.08670435457270211	0.07494365097874521
0.02181367783717535	0.03165459518243786	0.05275556623076254	0.1044843304776675
0.007747135206207178	0.008569791169823086	0.03913012500580788	0.05550012337848781
0.0005418482447047525	-0.00277296595249755	0.04139884304145783	0.005116915307144882
0.009094679832587733	0.02240202279628749	-0.02667847292413614	-0.05495259742798785
0.02941200107146791	0.05633410853440519	-0.04664894143647033	-0.1145328845186012
0.02979813187531005	0.06205425919249403	-0.02318861852378098	-0.07088988774143391
0.01591817024583696	0.03660481413259731	-0.02568394003431278	-0.01426019765307725
0.01277763770996782	0.02118770967856739	-0.05221268972145646	-0.01405140817170939
0.006237677303315078	0.009864630908431647	-0.05711032042801136	-0.02501198047452012
0.02853742214758843	-0.004581456044515068	-0.01526255374800025	-0.0083494617746024
0.02578466188245859	0.005089394875583211	0.01637792244662507	0.005610657385222729
0.01149927579208806	-0.0004306645099798741	0.007911080609975035	-0.003084560557925542
-0.002624096431317437	-0.01482277159642724	0.08659838300833586	0.01669609391197748
-0.01537908969371257	-0.03257772169089401	0.07325714828804865	-0.0118115261324112
-0.005492469500315708	-0.02864274347272168	0.0671113345398581	-0.02924304138727622
-0.004166706796593931	-0.02364862257304411	0.01643992642593913	0.03587078855625381
-0.03458610637058041	-0.02811800242488744	-0.0103758494596929	0.08202920454538733
-0.04459994325018309	-0.01886362533610639	-0.05932953750672793	0.1431308015678334
-0.06811019237595287	-0.0152949047656594	-0.03150901983512168	0.08183543687239439
-0.05685520860672186	-0.0228770671382568	-0.02311359776009431	0.03465882851755489
-0.02860970492831866	-0.007710317952192832	0.01369206193126038	0.0186716766609068
-0.01752360403245926	-0.0102315704617232	-0.004836716772538045	-0.002842659009276853
-0.02525070615050816	-0.01519364907110414	-0.08724924448473489	-0.04986538931022352
-0.02309166954887792	-0.004009776752866854	-0.1101262605318381	-0.04549916354410287
-0.0105805531091751	-0.009264082166457927	-0.07492372524078936	-0.004174073864210117
-0.008541622318467905	-0.01754382953566386	-0.003572843204980929	0.03730875410140166
0.001163988433024848	-0.0325640957840921	0.06330991895838581	0.1124911685716547
-0.01001268065654295	-0.01863614986660236	0.1284650766789034	0.1110872376393552
-0.02900976034683539	-0.0127917643121353	0.06164308530196606	0.09136078442395008
-0.04152427173283418	-0.0007755499439701333	0.09749142677320738	0.1006506225467363
-0.02004982598388465	0.02731004647575292	0.03053026161592031	0.08749869532206747
0.01291599588862337	0.03256232354075184	-0.008627370849113237	-0.009761464378428168
0.02579147174913669	0.0268150165510807	-0.006400760529687428	-0.1091756494698526
0.03827133607905681	0.01718596836617851	-0.008475128284267459	-0.09916866570922195
0.03640658548625839	0.009523415738343919	0.01288091301404149	-0.04657437082656487
0.03665828024812601	0.0005813756331939938	-0.05375110782734374	-0.07078428078062074
0.02087829709767864	-0.02211666445077806	-0.08395585689471989	-0.05933712652083664
0.01905897948458704	-0.02910327624316551	-0.08610711012548417	-0.03236866838334084
0.01915104309286115	-0.03298076594028002	-0.07677901703128195	-0.008740675136434586
0.02398528585752183	-0.01125248041826631	-0.02723950043192711	-0.005920687403983787
0.0428862395709867	0.03095052971199947	-0.03417831943964331	0.01294050284900517
0.04687347334613438	0.03979761948125606	0.03051105451414321	0.05223171202816519
0.04350150215729267	0.0006098901527589472	0.1178046582746026	0.08325338437927225
0.008183257905171493	-0.01549826383916496	0.1253568036402677	0.1057453859572722
-0.02830278984771527	-0.02153231086371726	0.09931893717224013	0.06599867877994099
-0.0197606525978628	-0.02914051396191104	0.05331888812683161	0.009516666849186485
-0.01626364948048311	-0.02875334189507218	0.05081600043139911	0.01267425486596582
-0.04132927130910758	-0.01990790633493134	0.02495660520150008	-0.03432870506202395
-0.02841991593329986	0.002460126984898686	0.01070216023176855	-0.07089730634323438
-0.01358419935923521	0.01899548402950499	-0.04512024976866486	-0.1050910037018407
-0.005809026798197527	0.03831451347631511	-0.0300619917795009	-0.1038004289576127
-0.01086645891838981	0.03400545943055161	0.02119003430131816	-0.08125068257300573
0.01137828544439351	0.03452372933156457	-0.03804554191607686	-0.07779624496767788
0.01253210648876411	0.04238398889488472	-0.1064673340478496	-0.07262144762095897
0.006028659684081522	0.0280130469890017	-0.0939145142590086	-0.05008336346215699
0.007593300394915578	0.009893162982636783	-0.1180906649575204	-0.04855941448637254
0.01512309967591928	0.002945490189104249	-0.09307591255720557	-0.00756597403595172
0.01781597378090959	-0.006409366969769272	-0.01070561643763166	0.02565499126808669
0.03103233086794013	0.004129108043069276	0.03134189266632086	0.01113313043410236
0.02541792813752162	-0.0009160834053951101	0.09147359749588672	-0.01086440656471626
-0.001004491178032948	-0.007911640314366593	0.06873715974175136	-0.0004283855620127617
-0.02139649651036776	-0.02690308889022219	0.02342602483383898	-0.009253226379644553
-0.02303880773630975	-0.04882817671705605	0.006567600928022302	-0.03779532214773444
-0.003912780848944845	-0.04988612103260367	-0.01348554531216181	-0.002603533148531174
0.002030529522423502	-0.02899693971894816	-0.01275971033091798	0.07089840224016705
-0.02109072876924407	-0.03296329395274851	-0.02196576327830803	0.07386263903155096
-0.01547420086261672	-0.01090602228260081	-0.01534627414373129	0.02292784195867154
-0.005707426590935972	0.008290673855785437	-0.03349135744620609	-0.02963358771359391
-0.002717270030153419	0.0007337210200037156	-0.02110441572164389	-0.08649919607074616
0.004199619588872364	-0.002133150258074477	-0.043489846949901	-0.1118331217271858
-0.01197661752024816	-0.001917605726184338	-0.01279031809270708	0.02654645222056378
-0.04805575252146281	0.02670156769872529	0.06171644434068973	0.04846160674476949
-0.06956007926335839	0.05280516404697611	0.06602093946036708	0.01429706985998294
-0.06097958015965145	0.03521055950696732	0.04000833179919019	0.01691806368848386
-0.02138583417752471	0.06291194731935347	-0.01328850017180045	0.001678322845566575
-0.05545605111396289	0.0568377415363043	-0.003320670071928762	0.03815063464051929
-0.05311734874239104	0.03353174736165313	0.05140249301761275	0.04141120621336096
-0.01032953831214656	0.008943285560105244	0.03249274650240737	-0.01104824993670831
0.01699017983237831	-0.004155685292631798	0.02150373897439505	2.729105311013828e-05
0.02154523589324726	-0.003398304389924939	0.00629785368746792	0.1137944680828069
0.01695718214803578	-0.00163848415558949	-0.005834170714854457	0.1011869044048514
0.01935199438581944	-0.006508379712590634	-0.02491737735006484	0.05716739675531779
0.01121430870047262	-0.01492052351725686	-0.02424404366768602	0.04665624589052012
0.009830667983797054	-0.01951483863770824	0.0114219112577552	0.05553649704930173
0.01032399518618182	-0.02653945403933779	0.05672958548557769	0.06392842610522194
0.02758605445309265	-0.004130896266522167	0.01207535146213553	-0.03690949483945261
0.03314529402416015	0.00540850667509274	-0.06083975580331189	-0.06904979685072238
0.0296878642965526	0.004510310915282255	-0.07117856296499996	-0.04440821189065405
0.03001913883379205	0.001047795191087428	-0.02540383287676303	-0.0360583465750755
0.04619020142541222	0.009844399926471044	-0.01973131165216554	-0.03405056652260534
0.04777607137298107	0.007320363540825601	-0.01409302417255105	-0.004486768585810749
0.04396255777743386	-0.01623292377250497	0.02064746826474226	0.01101316975873664
0.02724855627134779	-0.03312217611710007	0.0275537939764845	-0.0104371279806852
0.01317857959130452	-0.02261728107845494	0.01851679942056992	0.001679507357729732
-6.251511394040536e-05	-0.02961061146632572	0.01274008118089816	0.01770125050848175
0.001803510582373659	-0.03135877168245893	-0.01831415779380091	0.02985749024504154
-0.005911923285058352	-0.0414451669640459	-0.04981942608655243	0.04569428254096795
-0.008196654700691806	-0.03747735551610523	0.002388416508108172	0.06340778194654283
0.001990983908239124	-0.02888184546410304	0.0401011352974017	0.005236395886043254
-0.006834205989065542	-0.0186864579288043	-0.03220130775240874	-0.06767129899052565
-0.005963923642465381	-0.005064110692406624	-0.007942819482911166	-0.07260345667618957
-0.0006135932345190456	0.008627340703043312	0.01407417477293027	-0.04046127289245847
-0.009550690467139501	0.02852333676970297	0.007085691307512549	-0.02312948666358685
-0.04278338709513532	0.04728994046254653	0.07208436287629062	0.02151174059236899
-0.0353353096434145	0.03866322958775836	0.1070492947639513	0.04630264509343979
-0.02139603515701323	0.03053192274148092	-0.008466299583633973	0.03311084049498398
-0.01105998444004914	-0.004986212089157644	-0.07310822474232156	0.006936874357951565
-0.004830016703933472	-0.002896492594826899	-0.05660860568739293	-0.0447624663827829
0.004525884665342729	0.01014078092122121	-0.09178057270954887	-0.06960719985526437
0.01827259206421756	0.02542644417995575	-0.1357922646035098	-0.06372871458723049
0.01555789110416862	0.01691786710178221	0.01193222571874071	-0.01908489791734131
-0.001088566228315264	-0.002954210601560025	0.07239286558065035	0.006163888357879179
-0.0110258826841894	-0.004561632058219648	0.04504991323538457	-0.003507579917948639
-0.007223134811395913	0.02166745626442153	0.06962148523773233	-0.01204881806378215
-0.01088125122346883	0.01739106724189221	0.09205315585807233	-0.04311496294588334
-0.004382199056976135	-0.005019360156503771	0.0159556832278188	-0.04312220935972319
-0.004056630339542036	-0.01805661688628436	-0.01992382045861204	0.04210633013075472
-0.007376286529483852	-0.02701722096913198	-0.002561011077284688	0.0997521170344744
-0.004230536615790889	-0.02611481874149036	-0.001158813475488176	0.09170332038941499
0.0001624711527782774	-0.02371177619109812	0.04097163635782605	0.04904269308505146
-0.0002817038647614236	-0.02061577746080931	0.06819516895762603	-0.03560820406271994
0.007541224511563303	0.01415325863957316	0.06421639331717544	-0.1131555702537368
0.01241199579775013	0.01862066698030628	0.03017017253496073	-0.1179470967599813
0.03045426617392246	0.008038665793230671	0.01236419631455665	-0.07317874536506012
0.03533982986971045	-0.0073648371540133	0.00114788681782472	0.01102269600580495
0.03923209696080235	-0.0133734573215633	-0.04113242209297711	0.0707750441252816
0.0356110872937135	0.002760498202130994	-0.08763306629070156	0.05761921758297221
0.009494169547379692	0.008058820152525344	-0.05182322338314167	0.05137113626503045
-0.02078052007263876	0.001463411115320931	0.000678576309067723	0.02773127889364559
-0.02872380803175537	-0.005327016480648805	0.008304034259507504	-0.004992513460846592
-0.03060989198458928	-0.008885766003542607	-0.01222166009406023	-0.04654534994831447
-0.02669087286656226	-0.01315764020359271	-0.01588842899020644	0.01615981896024959
-0.05559977812218502	-0.02376960838527852	-0.04351253530965521	-0.04831924315140784
-0.04843933021616394	-0.01954940728879571	-0.0692457366289959	-0.07983094291342113
-0.0137929025320417	-0.006974589442697587	-0.03471511436695865	0.05601032381281242
0.03076820362586149	0.01728169109321892	-0.02520518546580905	0.08966914997325011
0.02326042329186337	0.01121745191782046	-0.02049918956089614	0.03183874753380266
0.02976366377012967	0.02463600500804483	0.01022919087443562	0.06065441511867646
0.01473646137564433	-0.003499974807135842	-0.008319113087329393	-0.04113317038439607
0.02252295379916233	-0.006464711415802442	-0.003190500147004237	-0.08699757622733138
0.03430736574696776	0.008510540981524919	-0.02973452294660532	-0.08764362900513244
0.00563900228947823	0.003819891547826138	-0.03714871630733449	-0.05268582081446312
-0.01970762412022019	0.01294009331235231	-0.03244305938913095	0.01905330776901401
-0.003673774376538226	0.01279818702423125	-0.009205704892799496	0.05862029106630474
0.002638330980584078	0.02002829702816719	-0.001238780966938717	0.1219676319458935
0.02038333417851462	0.04180863071023359	0.006021786845277997	0.1683530686680083
0.03899605966734731	0.04302217544738508	0.0292483668735066	0.1508571979576417
0.02641982839758633	0.01528128572020267	0.045096384830096	0.1090426473721278
0.01441159993488121	-0.01588512399847333	0.01502059484629125	0.02218168510261646
0.01210301641611074	-0.007334032408216609	-0.01755857171824771	-0.1473133590780518
0.008150555989522407	-0.01877134637236635	-0.04823676946739098	-0.2167356868877083
0.01823913644508323	-0.0162464499807976	-0.01859914251543127	-0.07718097275442355
0.01707422741377941	-0.003199373349705892	0.01601894915798143	-0.05295628092704806
-0.007463602762988814	-0.00164963868553155	0.09164743114005193	-0.09952617859599505
-0.01795788231798251	-0.0001535083086005933	0.136439163727543	-0.08037442563697854
-0.02336843955963724	-0.001345069042977447	0.08070155808489961	-0.0611749747614419
-0.03320344505340377	0.03544920352710164	-0.00992017124022215	-0.04527486620873465
-0.07738156227176303	0.01702856358030333	-0.01262037640813652	-0.06056413010878938
-0.07900102120425465	-0.03327207370365718	0.02861071891331319	-0.004823788113463095
-0.04400771460126657	-0.05814415910537465	-0.00167098373474434	0.03222067892268118
-0.0204675557438628	-0.03295444112093322	-0.009454688529947967	0.0179983085500253
-0.01912983750338652	-0.02285299938066649	-0.03499139656674415	0.07681222663843035
-0.01992504366313656	-0.00057940182568861	-0.04202067399085193	0.1061187911017031
-0.01104194049684836	0.03861013363867882	0.007741436864514344	0.08684199382162087
0.0162446885600773	0.07092505323221504	0.01255930371379164	0.06796894254986091
0.02376557619885887	0.0824375647725455	0.02023869103889599	0.03090229986851462
0.01857451837428264	0.04740139535837924	0.1209485328617134	0.01536428379395297
0.01128420283030131	-0.002167089117080094	0.06332147754552944	0.00977370354757761
0.01328781267492119	-0.01818504431034815	-0.00578372665972231	0.0134208322046347
0.001944579811222747	-0.02094279227240144	-0.02195360797390003	0.02701804500086569
-0.02508081885565062	-0.02378759822208318	-0.02167157196594747	0.04288956259367122
-0.0006991673214293023	-0.02351065727825989	-0.02967099668458137	0.01815911842662854
0.002019264401856255	-0.03040218194214662	-0.04434158117581575	0.006572076515596423
-0.004397511189155909	-0.04067358742100929	-0.02070548778565688	0.06671756952390104
0.00753874720541497	-0.0357296993147472	-0.0370718493337213	0.1476279517828497
0.01280671998156748	-0.02775071110882036	-0.05849497474402696	0.1338959731287461
0.01958231941888184	-0.02110750965071171	-0.03903629396389952	0.07603997480869475
0.005338208257250837	-0.03050937882966594	0.008565485169051604	-0.04054792829730528
0.007253420001912415	-0.01195981448396707	0.01248756805817055	-0.1078722850424818
0.01805106887883003	0.01118666256967562	0.03453178973099809	-0.1606542341008197
0.01739513654714841	-0.00908701138292674	0.02314702088926419	-0.09260925344663763
0.002901341873966593	-0.03444063248748352	-0.003902672432882419	-0.06715379161765218
-0.01954073871446839	-0.02609876487478639	-0.04427242876530018	-0.02208163413550573
-0.01327316047129213	-0.002752371053857691	-0.02576913469104835	-0.001275024650180935
0.0003728453391531397	0.01375575023433015	0.01870700724615722	0.006259869964298254
0.005201423717005996	0.0001620170306000662	0.016546188132037	-0.01346485980308937
0.01328277707980691	0.02412599494966003	-0.01629825160379998	-0.04042340112738089
0.0218464573003852	0.05002738152633859	-0.02422649496275085	-0.08104278364664591
0.02651840345286947	0.06096357603353875	-0.03252469321571487	-0.09258132202685454
0.02072281363984035	0.06142495657826323	-0.02914435186152713	-0.1094637520949866
-0.006698978881921165	0.03674435402594132	-0.01973818545817551	-0.06156213027109571
-0.02991128454855192	0.01186217184014076	-0.02352017964241293	-0.02448181741723966
-0.04645209056228976	-2.676802302260578e-05	0.01042655108033469	0.01970191123920717
-0.02316483147160076	-0.002818190300203276	0.07217721959863374	0.1011506227578698
-0.02838093771656879	-0.01411081630576054	0.0622944822476134	0.09730616397110467
-0.02439308043617818	-0.03131775577375753	0.04831518683787414	0.07177227887096346
-0.01426192720690914	-0.03956386383391002	0.02776998843388385	0.1354497541647071
-0.003864717480612104	-0.03942793479989595	0.005726673919111067	0.05688580578729073
0.008109604498208099	-0.04231914359078275	-0.02701383360158141	-0.009342798876059235
0.01342047425598975	-0.06384076246413825	-0.02525777777476076	-0.06570268684180333
0.005176225189087701	-0.06722035315121914	-0.05668251649033772	-0.2122123249830295
0.001203671939476408	-0.06991948586571696	-0.0661848630244037	-0.1317456308191287
0.01518199061658131	-0.05857611157698962	-0.1029383732077824	-0.05286602034275994
0.02322952403805007	-0.02143161198143324	-0.06048829276692294	-0.006343159733910687
0.01322059579891737	0.002270752640984567	-0.0244963589898101	-0.01082923448343445
0.01045721805672657	0.02417220375448699	0.1431138338369605	-0.01989412175827389
0.01627849403213359	0.0564433528034002	0.1246860527935805	-0.009765759365157174
0.01974439227818306	0.08485103266157314	0.02357018888140932	0.09004299870418392
0.01444461898046717	0.1419651182892906	-0.007642684437273109	0.06160589827907716
0.01098809509850629	0.1297152365977578	-0.01082812256244061	0.01741298343154096
0.01151363541067092	0.06507232152499819	-0.03667693170986916	0.03721443139535054
0.009058685662905873	0.03434824246151063	-0.01688418880074322	0.04506800347642309
0.01414531696671643	0.02209453434396542	0.03524709003296825	0.03691727941568225
0.01898514328461041	0.02856895875300245	0.07341349883145033	0.08258961907338801
0.01420792932967208	0.01266985497394908	0.08496963198822213	0.04429078838133728
0.01331660679515946	0.006017264544889744	0.06992206228129232	-0.005460860946157266
0.01601095633479102	0.001972734785052316	0.05710488776671822	-0.04246684856712492
0.01324218940390779	-0.01828092767403546	0.008377282091223502	-0.07322154111388655
0.004293105153466071	-0.02808099711565898	-0.0322138728005227	-0.01166215148307425
-0.01103871849122444	-0.03104785205583705	-0.08886308582796451	0.02457069626309546
-0.004550883335273905	-0.02999970501165343	-0.06715232658523672	0.0150237671230598
-0.01280046342261031	-0.0447998398464196	-0.06465617998093223	0.01658167124409832
-0.002029988552354884	-0.04053195793937345	-0.06186030899731521	0.005368138991579553
-0.01499741814120071	-0.04098315549933549	-0.01698632414768227	0.01899509251510939
-0.001652617643767918	-0.02626973975964105	-0.02467154511552494	0.04980824715351032
0.02419329173020728	-0.01793162755670689	0.006690230659542521	0.08406915526682997
-0.001698357083024486	-0.03734327714338643	-0.03218581496904994	0.07849473406273395
-0.007148421649077038	-0.05435256951589954	-0.06462241974385621	0.03670571719890878
-0.01197712089474567	-0.04051224504840253	0.002391715824413706	-0.03013699633699331
-0.012485274443441	0.0001884471005932731	0.07394311930807938	-0.05526237243607846
-0.0008210238497629683	0.06458048679993912	0.09554886888070663	-0.06906092443335528
-0.02991925765403823	0.105340971719214	0.04940044955522394	-0.06030743585648066
-0.05160024919709964	0.07021332439478399	0.02185022144570711	-0.05473425332730464
-0.05877784703812367	0.03746422898938606	-0.001035310692458336	-0.038064467376124
-0.05005742536700572	0.01639421423022349	-0.01746580357228324	0.01781267981688103
-0.02537099140331123	0.01207519160305322	-0.002082149643975746	0.1497091416541992
-0.004127830665557358	-0.00630595632228059	-0.001087023641137183	0.1170752348101585
0.0163684623821608	-0.02143266563266558	0.03422970264090844	0.04050498990741512
0.00989739015950987	-0.03465152861430151	0.01096871313097721	-0.03486578969016263
0.02418858342943247	-0.02502011851904793	0.00192492181702592	-0.09796486940228682
0.04072140686951894	-0.01965677740827691	-0.01631065272279516	-0.1068591691956032
0.03872709129678042	-0.01462933559286623	-0.04248353602281185	-0.1187016104589244
0.03252831093410555	0.02235495522510144	-0.02184097174248542	-0.05936672120615934
0.03760700069019088	0.0341212249337374	-0.03187977503156791	0.04367662062664757
0.04157863488291497	0.02052473386028551	-0.02175689506493303	0.1170580609029812
0.04017408363319774	-0.004769055084042208	-0.05606216762608868	0.1446994314038116
0.01775013820470322	-0.01504995521250661	-0.07627394406222064	0.1137608385773767
0.02488028139742993	-0.008639824190287977	0.01444721655233496	0.08608038317961812
0.002674094585061317	-0.0263410312780844	0.01988930446092461	0.0446839127059631
-0.03088248347105598	-0.03046097293288388	-0.001262727548948852	0.004646397318160806
-0.02883059285533407	0.007519562911335992	0.05383225125129124	-0.09104541370585301
-0.01971188961006437	0.01969489640803756	0.06013638377966369	-0.1183544225159341
-0.03391112128401916	-0.01219543593741043	0.03097896917719023	-0.1250477119391759
-0.04599350791228145	-0.03841324928459781	-0.0163180503581221	-0.07382010357937827
-0.04602443579009852	-0.034289379296727	-0.005660581134130311	-0.03173974353768457
-0.04684294274579645	-0.01065496803184504	-0.01138793851992831	-0.02049084835866046
-0.02567390303034614	0.006047092700353618	-0.006100768283355954	0.009483965844601544
-0.0150582706522354	0.003773378689249899	-0.04239503273757828	0.03649098550929137
0.003850930148527761	-0.005736509569348535	-0.06865707621283483	0.05885298781264992
0.01342930545807714	-0.01251957323871475	-0.06195249914297704	0.07418027064543962
0.0185722851293779	-0.004557991479040228	-0.0505141899355298	0.05308918673383779
0.01221241911137781	0.001383685873524869	0.01591941327402506	-0.0262013401118106
-0.001214581122771173	0.01345571862740806	0.1416229162875828	-0.1017703270360105
0.008154509353064193	0.01309146029713405	0.1052120460630746	-0.1820453667753701
0.014114759364478	-0.007156848908686533	0.05351230054903299	-0.1301769305670652
0.009631044058061715	-0.0131897373783585	0.05266841557846832	-0.07276741653661796
0.01246022224075614	-0.003766416050175192	0.05224531478960675	0.04305185451333872
0.00291667019841634	-0.01026356908175024	0.03493162771606094	0.02302423250554475
0.006950512166435351	-0.01579246476446583	0.01183269838035739	0.007497881174459502
-0.0134012401554874	-0.04350224232952346	-0.02464045832066536	0.01487128423568148
-0.008442368010294583	-0.02348814275578722	-0.05080788692388562	0.003782613985030867
0.001351602625102195	-0.01479109455361766	-0.03701441858533479	0.00735769045558001
-0.0167003406956995	-0.02030822968423404	-0.05704562289602792	0.005980045318614105
-0.007942159564500959	-0.02846908631800792	-0.0438779625740158	0.01250231847360184
-0.02319872618170588	0.01114202178346182	-0.0225006251071713	0.01104824045138
0.003410660638291046	0.04246188481552915	-0.01489164716710206	0.02202013738026212
0.01003363381817919	0.03287201038086429	-0.01912703990816944	0.01755274737070087
0.01814846358772242	0.04770496346506906	0.02580523387262623	0.009695298246809057
0.004535469176541841	0.06357336462788735	0.06818784105381735	0.009598686789730398
-0.0006121005604010953	0.03227088101221524	0.0775851036444891	0.02447421769541693
-0.01428493357238311	0.03207422245712512	0.03239112878149689	0.01318765079194694
0.005423466627253739	0.04750195681556834	0.01596633072260825	0.02910223005039617
0.02519391730550813	0.04329158960872265	0.007961360613341429	0.05666837548273172
0.01932313137748386	0.02613866081553656	-0.03675703701426652	0.05246460151809577
0.006078333786458362	0.01906485088276156	-0.09206614764969509	-0.001033321173052711
0.006504859529447395	0.01513670753549792	-0.08093110167660825	-0.010370395999301
0.002591930470029224	-0.003086968881057595	-0.00188245969736548	-0.06595649862915803
-0.02824372773211613	-0.03362828212431472	0.01795375048195555	-0.06758659286457644
-0.03382987815743094	-0.06107988139823779	0.02110766578707104	-0.05108514522840193
-0.01622316394293338	-0.07453389349247035	-0.01960423422893963	0.04438072158150828
-0.003697945415236365	-0.07288274386698909	-0.0207029121442824	0.02002967047361676
-0.0006113096503679559	-0.05990952029092519	-0.05179436804214912	0.03357800279996739
-0.01170098778029686	-0.04035217553756274	-0.04889798974738906	0.1050180321484318
-0.001050226150010906	-0.02601842274245597	-0.03309089903820416	0.05195484815700613
0.01075456932156738	-0.008040553946695884	0.009082160008910042	0.02261568013568026
0.02993573068830324	0.007420132923717315	0.04213079686420523	0.0365850604306371
0.02504236856171466	-0.02086938065634933	0.02472550951589554	0.01423801806665523
0.02331714951502785	-0.02106886333877719	0.03884497267438512	0.02713148819253927
0.03743299263819749	0.002641740707271851	-0.003829051304225662	0.02567807118465834
0.0185332935085017	0.02534159221267144	-0.004209005979877316	-0.002310703235793027
0.007437022361927462	0.05503317242547223	-0.01599194388269844	-0.03445324914551541
-0.003344162717045688	0.06452870112709701	0.01376719852873557	-0.0583003029161599
-0.02470951734677833	0.07083444624583859	0.02592741257631495	0.0153453925595059
-0.01399688076806704	0.04655569191318139	0.03724724137139087	0.02957333617960362
-0.009455253789521384	0.00850172295414223	0.009100662312618961	0.0309537096481447
-0.009969663980185865	-0.009497264660666296	-0.0178545497281811	0.02911847194580278
-0.01108019497518532	-0.009689092557892754	-0.02714947677116914	-0.0264825406267563
-0.01345565642698931	-0.002261847648404691	-0.04835560256985487	-0.0527525356262386
-0.01588419613095286	-0.01945718453042889	-0.05839000140656561	-0.04067334598331442
-0.01376841705316142	-0.04806980134823842	-0.02394520636872409	0.002610438936201113
-0.01661561184270182	-0.05781693917735738	0.01110136183683303	0.0009570575896345743
-0.01787520060223202	-0.05573372497842757	0.06373523089876307	-0.03909056166414471
-0.008791586891366705	-0.02500994484699516	0.08429742907143854	0.04482301874201946
0.02463450889611805	0.01410804775767415	0.07697762209558959	0.1264930941191788
0.04098028335094238	0.0191566179442668	0.06963227073044453	0.1070187835335701
0.04377760429393463	0.02488034663464144	0.06390396289450014	0.05658077292557415
0.03329907528884497	0.04393616917332008	0.05232746429599032	-0.02710486811034653
0.03691350918343489	0.08668244530982461	0.0381979762335364	-0.1593096595253127
0.02639197493907924	0.07882273698905377	0.009254744567523902	-0.1927127314372568
-0.01997659684175847	0.05559259076388509	0.0002467524618197287	-0.1487247263095123
-0.02299587479793353	0.03240292854653173	-0.03213329589434839	-0.08982478703263581
-0.02137810003435019	0.01331155913364293	-0.03823326137853007	-0.07394958795977881
-0.02523523085487501	0.006314865086675536	-0.07263614738471549	-0.03501346751828013
-0.0195954610410864	-0.003087290941074586	-0.05627950351520059	-0.01731756734766505
-0.008647327863970888	-0.01124179411115751	-0.0240345212650829	0.008923895754179251
-0.006338914599783575	-0.01628322129533684	-0.02327287088611406	0.01562830324022142
-0.01016198385179783	-0.02763601773129189	-0.0241131142922369	-0.02565512514846105
-0.01053258865333377	-0.008887689188916621	-0.01026762171043114	0.02160317059224049
-0.0001657904886288224	-0.008747925461058412	0.01718295318393586	0.1414765832441121
-0.008248898840860703	-0.02250549291783876	0.007335082570818635	0.1267495627130325
-0.01009808163040221	-0.01203434098253662	-0.01662407766158101	0.07310694144359525
0.003443176804565696	0.002816374840402805	-0.02869209794011427	0.06286326903370741
0.002226310672958795	0.003987453320269632	-0.008524420434961112	0.06350072952962679
0.008792155420852481	0.001142955735751634	-0.0006366694384670834	0.04353519526687671
0.01821832043551573	-0.01047245731954994	0.02325849190909027	0.03180141615958248
0.01617886285327306	-0.004508487672666801	0.02410379233556486	0.02575359817003201
0.0249781661367151	-0.007241803932038272	0.02953261094531458	-0.04886702609398571
0.01319944173500495	-0.02645158710619591	0.04190886862682962	-0.1380934854512263
0.03378790048228168	-0.04720058830386718	-0.01439659711366553	-0.1469332987173652
0.0231381423410305	-0.03902325382581136	-0.06609449874696421	-0.1174617843739573
0.005716261077573847	-0.03477613220309778	-0.07376206668319264	-0.09793929406899521
-0.02241931028617505	-0.03662381497428196	-0.07748045623520583	-0.01404517978677097
-0.01537264817033093	-0.02780320481644212	-0.09585831099265658	-0.05161518874710549
-0.02101237266932512	-0.03977140638607923	-0.0362005140690493	-0.05830028126727364
-0.01470335090506055	-0.02544256548477073	0.02054687608962475	-0.02889988332242176
-0.002180350379140761	-0.002285437597788299	0.04335857565750056	-0.001856866752296039
-0.003309551291508556	0.05372138524719394	0.08283820891275002	0.03789847216049716
-0.02465880838145336	0.1121727755507413	0.08608252414876373	0.07019006760155233
-0.01738248152820159	0.07978176733846823	0.04160423911871496	0.0560112653786852
0.0102507064925855	0.03962997961481087	0.0254887802323416	0.02216699502487985
0.01513149803447369	0.0316789640878914	0.002851712899421525	0.05038879878409309
0.01850630203567485	0.02241695705412451	0.01791381603450166	0.1193381682638847
0.003752884025703847	0.006565914450076496	0.04195466205843486	0.1175654482637086
-0.003487932742794085	0.007810435600488518	0.001296856738140484	0.04182368887336441
0.003059948660192911	-0.002025863512905522	-0.03075262365277744	0.03223314454798824
0.0001034894456105109	-0.003188179494723127	-0.02846918064245096	0.01357040278543034
-0.01813925036931089	-0.01214450756725212	-0.03506530003323623	0.01852325471662705
-0.03578789792428886	-0.02882792490259017	-0.02115041030984583	0.02390404173845511
-0.02560081693358889	-0.04338471112606521	-0.06077685429434892	0.03757751622886176
-0.0143178784782974	-0.04222442497091959	-0.05726566085979225	0.02517533077563802
0.02812851668038192	-0.006381184680108677	-0.03592007372932624	0.04536601894130508
-0.002965323142076101	-0.05646384559817928	-0.07078588759460769	0.006814598669057216
-0.02290922459647277	-0.07535058370390163	-0.04081257945954885	-0.0659393933363227
-0.01567374600300754	-0.0622653337820025	0.007679039013952046	-0.03270688251543019
0.007091137101346888	-0.005963398263567601	0.04497136100467652	-0.003521146604555703
0.01634753311893938	0.02477479096635189	0.06760654948197742	0.007335706598641325
0.0175328000723838	0.0203609300051079	0.03634076261097255	0.003509886080973407
0.01243852120700804	0.01398871480490612	0.04003079339511037	-0.02188549904201648
0.004731361067733952	0.01205197370520776	0.01274255475977216	-0.005808807544455787
0.006468545083416294	0.03978614988305288	0.04026231527845056	-0.001437578045076636
0.0191406121263812	0.07694927720668278	0.03666383432343424	-0.004906554676372204
0.02269720865975147	0.05210628675596252	0.03124618163034429	-0.01471736857748823
0.02388761971328679	0.009916957407084519	0.04593731091115066	-0.007575769926660328
0.01684941979412198	-0.02032223461835485	0.06861909012022321	0.005170172367987061
-0.002740412998430036	-0.05516961463554312	0.05482006569947622	0.0235677752116207
-0.003679904083088736	-0.05377589085586976	0.01434909070375428	0.0007818607669506359
-0.00427755232510049	-0.02639973046589247	0.02818641777879183	-0.02792092701132149
-0.003321963453913831	-0.02797495196900857	0.02362034609265139	-0.0497344829606959
0.005536664725948426	-0.02698690647714082	0.003739811964602264	-0.06929429736950501
-0.01113007877197427	-0.01640454460029751	-0.02998307461720494	-0.04366388608339438
-0.06503657894969997	-0.01040103548267155	-0.03600595956761736	-0.005887876973774357
-0.03665779685108452	0.02835877334934345	-0.01195380068284238	0.005507746354542474
0.002930940691199761	0.04056117603464131	-0.03537585085073476	0.1337351924398221
0.02662384258529592	0.05794086845676794	-0.06710299553507212	0.1248575462337887
0.02379908195323201	0.06313563285926591	-0.05544495047200518	0.01330463163578629
0.01796546685297369	0.08593184701569853	-0.0710642999501056	-0.02388472931499994
-0.001006166474595241	0.09910208667343315	-0.07131928788495219	-0.02514642385307076
0.001348803608224997	0.06897869579829226	-0.01244477518690944	0.03627448004300662
0.00565317918084036	0.03544020976932258	0.008962692286334515	0.05385120161073795
-0.01478933273754344	0.01006921956366923	-0.02142428617238804	0.03667496640144424
-0.0122949861120716	-0.007609308838199386	-0.1193695192641175	-0.05197192188359308
-0.01482855002507205	-0.0150604568624497	-0.10137278796434	-0.09880297511444414
-0.01668838520657105	-0.03367015844527776	-0.05511912334459445	-0.03906182619100114
-0.01934245379907475	-0.05741367561499676	0.0125016420585317	-0.001257957236000105
-0.00377492095044048	-0.05829434359817533	0.1279215482739318	-0.004583492150619633
0.005113851507177878	-0.05692819207373895	0.111997471384025	-0.06867769276555215
0.01186000004817004	-0.0432682863867336	0.08696238806916338	-0.08360235759750732
0.01567645016874592	-0.02240456595699323	0.03331076588719573	-0.0176956516858474
0.00581831477790501	-0.02749810274130622	0.02470331869796632	0.01390681191593395
-0.00450437274772778	-0.02382182079460516	0.02161939451401031	0.01001908455273815
0.005376200077626052	-0.03397360792118239	-0.01029149978632187	0.008594641135907709
0.01298477714045609	-0.03323337386035987	0.005943626056459983	-0.04059173886860091
0.01494205607371053	-0.03653458066158975	0.01042689416664711	-0.1404015861204971
-0.003598454508554753	-0.02716107047818399	0.02163251517259993	-0.1609174189693487
-0.0002153106093183899	-0.01024723559145401	-0.01179109466671731	-0.04688327706220974
0.00849243969399229	0.000474417608386856	-0.05497510287049251	0.02026290569542257
0.01083439845514379	0.01333766023595368	-0.03644052922360539	0.03378534137217713
0.01600117978269381	0.007057184797995733	-0.0315038633091627	0.04550859254789469
0.01552064813258343	0.007524780041589536	0.04215400721970374	0.02724271492173634
-0.00229022315771929	0.009993798770526481	0.08492830190999631	0.01475427913830162
-0.03401578713699539	-0.01664558082740951	0.08294178264591591	0.01200878165806279
-0.03505078003767529	-0.00325248397144707	0.07091476677385386	-0.02371915421792557
-0.01203086690875196	0.02220671938087807	0.02619249797280138	-0.03434565932818763
-0.03963049933027545	0.03962207807813718	0.03691762226478936	-0.0382011243453475
-0.04941945676252759	0.03446974258951915	0.01900872971873847	0.008683327550150543
-0.01563794948308985	0.01923962312006826	0.008366934447485378	0.05810064091286318
-0.001351115337094373	0.005095832542612075	0.00155493115478947	0.1035894947502715
0.0001159850534210655	-0.006518824932731907	-0.04430347147835643	0.08989669335587845
0.002931248264883033	-0.007197368667254786	-0.04824464031499927	0.01342030121580302
0.01019864135117314	-0.02530092653376961	-0.04071873414718687	-0.04053935554139242
0.025516115956629	-0.04865767231455945	-0.03420024284860207	-0.01061153525675541
0.03303393182264799	-0.04666682267988279	-0.02820396829856293	0.04724869277945218
0.02648741880526632	-0.04075385607906798	-0.003154905601196753	0.05662825710745809
0.02108346072797659	-0.02947210740669386	-0.01237879145615778	0.07373790899722282
0.02034703029254377	-0.004384331140706229	-0.0008295306784949054	0.09736170741453978
0.009782069513220346	0.03760707280700032	-0.01624317410165347	-0.008209874687993968
-0.002435160301001811	0.07179499860903737	-0.02681847402413783	-0.03207762998541942
-0.004194298743457041	0.09420402335407095	-0.04566105311057884	-0.04690490207266571
0.001071480517433653	0.07277819057876157	-0.04752121303527407	-0.06825345236908337
0.002505482163424606	0.04608987999617906	-0.0461788433335061	-0.05868036533579391
0.01627635305167072	0.01640810746230445	-0.01801121449370479	0.01812773952901309
0.03301404005139644	0.006131624438986905	0.009803677715920682	0.1186442974011904
0.02074243400217586	-0.005365019875725975	0.01955050389817619	0.06623900192188589
0.01557871473129636	-0.005811055387648618	0.04297807184741907	0.04692281300590139
0.0192305255340379	0.01475134222642198	0.02180002301296944	0.02352309297029522
0.0121523901965718	0.01101655030999451	0.00110855913066694	-0.01447177262242376
0.004008075420175295	0.001819410885346357	-0.008846723555851416	-0.06149620506085281
-0.01161914473997895	-0.00394619132103567	-0.01799555934706317	-0.07804272919894711
-0.03418053367373407	-0.0001906703899752284	-0.01563958922716944	-0.07274597763395824
-0.02873291796700104	-0.003835948448576268	-0.02953349715597204	-0.03535394615183012
-0.01480228970062247	-0.01598426296275654	-0.01419062380700033	0.001029550930673136
-0.002154796131101813	-0.02806568970143014	-0.03626445845377793	-0.01144114464564973
-0.007326754835844224	-0.03779798602049957	-0.0268769914896474	0.06312362807950285
-0.01379057438641298	-0.04519357545636425	0.006260035670104438	0.04903066923490926
-0.02261592084988582	-0.05687110099302441	0.01124355357522837	0.02179407129517005
-0.02300004148743796	-0.04781324624499966	-0.01514091893583711	0.0198941820511978
-0.01209808139538371	-0.04058142865882426	0.003314889931912345	0.03717903536299991
-0.003259099775219614	-0.02943579474247598	-0.01876946615816372	0.06120831257804769
-0.005904112767853231	-0.02107835902792855	-0.08214081044346612	0.08970101868433432
-0.03153635388756378	-0.001750636617732948	-0.05712490386636036	0.04750390990981831
-0.01103216651686082	0.02586691895710706	0.01623026974859326	-0.0221199893065189
0.004411734850081031	0.03244510204092374	0.1030545496983353	-0.08726768741743583
0.01462067091085681	0.05222365324841108	0.1540360358863161	-0.07862477668259465
0.01212064652035163	0.04175850119296628	0.1941988253512577	0.04595181707172293
0.022523408437829	0.05389783514423164	0.08261769407506084	0.07645435574533696
0.05313199641047912	0.0729594884862729	0.006548800875264219	0.02254471356804933
0.03539638269352251	0.04183389530147188	-0.06645515671375733	-0.01202589643132164
0.0226592794518514	0.02348058146970856	-0.06839656176729843	-0.06722895895979941
0.01957744196680893	0.002067415918307026	-0.03832339598903381	-0.09642966195839761
0.0005209906893861887	-0.02259198207396342	-0.009123528003588359	-0.09151980089874621
-0.02482848842899197	-0.0446492069354904	0.04407901955256177	-0.08243549052961496
-0.02371490365203648	-0.04727743719639211	0.03915400426236999	-0.04229688996761892
-0.02252611629557643	-0.03163829297742908	0.0324276255203326	0.04627141770493493
-0.04571164562914679	-0.01596194187002718	0.03592169933233981	0.07493807519808281
-0.04668582496426676	0.06441210296752566	0.01403393990244735	0.08810597257208402
-0.01987370831502022	0.1260276168566362	0.003448913984462719	0.0674027140437088
-0.01220560283229752	0.1084325617517646	-0.002444708928999121	0.01218880182704847
-0.004246337786986676	0.04731012810916174	-0.02146215572524617	-0.03168074539521861
-0.0005824709032771157	0.005464516112756655	-0.05115884826669298	-0.04184470375633661
0.005398194189714499	-0.009909582388394724	-0.08511392177868406	-0.03312879540317438
0.01447706902379162	-0.02937318915427688	-0.07777505897712925	0.0368843902640406
0.01570983711078625	-0.0456076101201319	-0.0733143023889912	0.05862819097924019
0.01145085761399865	-0.04874913838875552	-0.01907785832483419	0.0281303730996175
0.008202127067248779	-0.06445146231216148	0.01771080427429251	-0.02430268636527352
0.01686289740048315	-0.06163986765102458	0.03694543278428049	-0.09056025182585561
0.01752012366248893	-0.04294960612989705	0.06749908421877941	-0.05362425227906831
0.02604562397971412	-0.01760105138980247	0.0465809694690638	-0.0165409257796427
-0.003066661516101629	-0.03765452245194964	0.01347477571955596	0.02191961781246048
-0.0159903630608552	-0.03559901483570076	-0.0226090088553119	-0.03025871357828425
-0.0156024353882982	-0.01710572899834478	0.01024131508681642	-0.08206092705324877
-0.01085174943892718	-0.01678048482273308	0.01487378970078746	-0.07757694628240787
-0.01144151366309622	-0.03277986668859919	-0.002634283960103769	-0.1041490176578861
-0.004331943313007262	-0.01899253152590665	-0.01345541945686427	-0.06242383453748175
0.004153877736295718	0.01642538866008579	0.007117045210551443	-0.03815739940601891
0.005354788244431924	0.05302722891228125	0.03167825765295247	-0.01902900877557938
0.004032437850900876	0.03881580378441073	0.004200157449389689	-0.02368322989499296
0.004936844896296328	0.02379564142246165	0.03475561272940295	-0.0147005197504271
0.01836421038160367	0.0336813367595241	-0.01154136721787476	-0.03916046105366457
0.02012516809527358	0.0386181525154461	-0.0359271339805599	-0.03761738466480645
0.008791229546227816	0.01230187891266836	-0.06133104317722621	-0.01957002739453897
0.01409582830743917	-0.02957637953394885	-0.06341395518418907	0.01187760591519909
-0.02780386453656321	-0.02432815729693199	-0.04270527298521493	0.07031756687759498
-0.04586951682291849	-0.01597718300194597	0.01869253261117633	0.129466873209279
-0.01810582012863942	-0.0117027840337595	-0.02586620109467763	0.09194475129614886
-0.005149765767184946	-0.003470176415201833	0.01061195041890845	0.07535653859874186
-0.001644760162921323	-0.006301045125938656	0.03246029652273495	0.06468384233109545
0.01142967713190342	-0.006189533561496707	0.007169874772889147	0.04024160911516927
0.04276725481273434	0.007336099499713745	0.003840450084819319	0.03128596026458432
0.04961891704465644	0.02263060389690251	-0.02065268099844241	0.02313252480113795
0.01964878953878926	0.02188620656593905	-0.0005970657191858163	0.02626048088778615
0.02251235540518842	0.0106406572308014	-0.002731978357380833	0.03039197233303087
0.03198590963607755	0.01765448698564943	-0.02073216650943391	0.02126737818461029
0.03714375428828307	0.03235428719371344	0.006571396810484577	0.003832233754076508
0.03972005792531071	0.01417132617170512	0.0303207135912805	0.03252663718162507
0.05102045391974563	0.01495866884455905	0.005516074734871017	-0.01037636029669868
0.03154384888037229	0.01300439675770048	0.0176800445210884	-0.05027907217274248
-0.01000312189442888	0.002056900215657664	-0.02995518435800446	-0.0440030602422795
-0.01955018720992311	-0.02498801553796689	-0.06748472603662664	-8.097801805249244e-06
-0.02318115080599053	-0.0370184541044799	-0.02289264462498729	0.056747991925428
-0.06684605829379514	-0.03311423646632279	-0.01051342945783358	0.0611140644071388
-0.0854496022965103	-0.03889496356887092	0.01658723402206531	0.1030291937919915
-0.05840858274044192	-0.03682331426845557	0.01287259595971684	0.06936561317757418
-0.05194098611037426	-0.02601018938350636	0.04053647796673009	0.06034010842385309
-0.02432144333597999	-0.007862504135037368	0.05731481691599972	0.009057464762918471
-0.01856118314823042	0.003774924921621596	-0.01646503764516054	-0.04203720393362723
-0.01532885122314845	-0.005574325484166162	-0.04774972967003863	-0.01272406267049316
-0.004078563817949207	-0.01833146497109219	-0.02982437305180038	-0.04340338198020794
