0.005321314745490761	-0.003499672719228484	0.003170400943898595	-0.0005494691362589179
0.005405690882746425	-0.00456298348380002	0.002205469744860081	-0.0009876562784034114
0.002796398383379142	-0.00430127982371893	0.0003200745176588795	-0.003101605563726867
-0.001037665382855484	-0.003158939668636026	-0.002406934487348801	-0.003574505685141767
-0.004641893664580741	-0.003442842374807601	-0.002761535139991749	-0.002349081523187256
0.002385986633035243	0.004257237086307866	0.001236427646236322	-0.002215914613539305
0.001345618864495556	0.005832766750469572	-0.001244345489244663	-0.00522302660833638
0.005671088350966265	0.00717978116105154	-0.0007453231509022928	-0.002199768058089867
0.003727515912619307	0.0136379245688754	-0.0009633458368409253	-0.001972639180932841
0.006418622789150157	0.01443150214210767	0.0003892067519365349	-0.005040832003094112
0.007947329341913724	0.01535954891024237	0.001341981066576946	-0.0009366721501284543
0.009352598530217861	0.01492186913214498	0.005895884840168595	-0.003001576420572651
0.008349333925138652	0.01086923747046207	3.391815682413668e-05	-0.0003650020615846444
0.006055569246581628	0.002978594461535697	0.00258771833154003	-0.0006589855922894542
0.004405716809511538	-0.001030208402685512	-0.001215173814956958	-0.001595121577001971
0.01504787004911351	-0.0008793809950156687	1.192766612183346e-06	-0.008091439921394175
0.01534106438264315	0.002366012934620394	0.0007565045318937232	-0.001005267886168438
0.01757939786133556	0.001635385643349015	-0.004249134880137923	-0.004937545759197068
0.01478900220269817	-0.0007808362075947075	-2.79960701510986e-06	-0.001704262055737586
0.01517725351894603	0.002191283441599464	0.0007794555929142241	-0.000809820686990576
0.008264953276874471	0.003331315705283515	0.0005576935717476874	0.002323046052007653
0.00259076913333139	0.005695436166800101	0.0003475795889452168	0.002397444069091432
-0.007552236029753833	0.005145262225405567	-0.006122312559673713	0.003172729904036927
-0.007093408719289314	0.002477742507131973	-0.001223690694897354	-0.0006292000741187782
-0.007447692247049043	0.003457832666010516	-0.001893746399615699	-0.0004316122766053868
-0.007374981490115109	-0.001873583634753692	0.001743166100926816	0.001045075415055094
-0.00844093010956856	-0.007882256583922036	-0.0001787938098474092	-0.0007365233518662598
-0.008329543449463689	-0.01055103737105005	-0.001820166429667915	-0.002169097897202187
-0.009176564089715225	-0.009308203772085116	-0.001897647239114318	-0.003894805024516378
-0.01326835370719473	-0.01176861460240807	0.0002170951857311639	-0.001304891234381815
-0.01136041417975685	-0.009654521602706677	-0.003033231135641834	-0.0004789405786855995
-0.008714564986419412	0.009437066924718952	0.0008784509813934823	0.00062858245604239
-0.006842817171609865	0.0154644134693516	0.0006553056420196366	0.002930839531520048
-0.00813312053680201	-0.0003178955340771119	-0.002305136668041639	0.002200791925162953
-0.001955236046764098	-0.006155094483269004	-0.0005656682107652715	0.0006800237508699961
0.0004557816705171137	-0.009387970900760725	0.001614388039847399	0.001295581053298781
-0.001126159950989205	-0.008698572319300501	0.002324276101696356	-0.0003571169547134195
-0.003169164731731831	-0.01110163042377874	0.002892990401669755	-0.0001137670552454852
-0.007482542635398809	-0.006500695377908836	0.003799126975139052	0.002356695339574364
-0.00565370021954463	0.0007027668267599609	0.00318615398382656	0.005919724952415659
-0.0004290656627232371	0.001912408694894309	0.001451088902472445	0.002551819301431492
0.0004084002558987672	0.003267567470224264	0.003761834931550633	0.004147480069773394
-0.003674193408576859	9.962920325124457e-05	0.007073063060163697	0.0002099028573533476
-0.01441077890978636	-0.004681578897026888	0.004189616625010134	0.0001075936554741836
-0.01359127850590873	-0.009526476178789337	0.004675088516925854	-0.001451831810229783
-0.00506720061752136	-0.008262165496025431	0.001766712457990813	-0.001142966210529578
-0.002015794493534659	-0.004257371869692032	0.005219865438378572	0.0008705009714689583
-0.002899591810009371	0.0006753878419601325	0.0001306571943514387	0.005119231810028527
0.002633257624998206	0.003484948452639173	-0.0004097226115000531	0.002825756141974566
0.006316532860656771	0.004394361931682298	-0.0007216400592378413	0.001007491661738865
0.00615325239408878	0.0004326087523801767	-0.002425013100246286	0.001536055028427699
0.01193743626634105	-0.000331295835693842	-0.001433314672438535	0.003654647004099461
0.01110537545231555	0.01522901279513781	-0.0002093978763264205	0.00415496927009978
0.008292874494706282	0.01062233817516976	9.646778927483007e-05	0.0008188047198888171
0.008015717167789935	0.007514363660602289	0.0005015608679530118	0.002305331129884532
-0.002949696710156298	0.001105103536946593	-0.0007597969734036186	0.001923280035762415
0.000141815653903825	-0.005180461960082905	0.002360528918239283	-0.0004573286744165469
-0.004222979326352144	-0.004549264321494672	-0.002998010907065689	-0.003382880004550167
-0.0001749833332670521	-0.009293442134542295	0.0002302549789396639	-0.000606091078033498
0.001535687928050247	-0.004472335871734491	0.004627257896969315	2.630162891492763e-05
0.003441823586519306	0.004478526365405219	0.004469560614334672	0.002222253864736348
0.006285272606981106	0.008908463607918738	0.00476956724159843	0.003480641917707424
-0.001052205482729649	0.003379473230566717	0.0009365936573404168	0.004463753507214108
-0.004651761104984385	-0.003330303433602837	-0.0007918181708744705	0.003378159746584005
0.001524407160319147	0.001764826382477755	0.004542684681623174	0.002683239589850645
0.009191058013333701	0.003617590847092408	-6.247040982689528e-05	0.004181216261296176
0.009754534723446288	0.006079638233355777	-0.005477998385127403	0.002603308347874201
0.01113815212186624	0.006460640509193148	-0.004854927062791444	-0.002167382932460354
0.00391539104880439	0.007725962190048605	-0.006131774085913498	-0.006080150585476564
0.005337868372217234	0.01036366060095269	-0.004998031719301028	-0.002908329718051578
0.006353368649799781	0.003783818026871813	-0.004994177855897227	0.0005929512584481423
0.003471975984779131	-0.001494224272111688	-0.002322980316762798	0.003127727515779271
-0.0014327941612463	-0.001920508072799565	0.0009684425862339894	0.00543169541792537
0.001751790840227978	-0.002364256766422598	0.002883188298360026	0.001022413852613048
0.003103034879072646	-0.003466423287370275	-0.003052216901128765	-0.003555531671807315
0.004419761126429599	-0.002742385347543084	-0.004784865382649514	0.0001320425965870368
0.003220939316913935	-0.004317251271949013	-0.003534422409790972	-0.001333931616006115
0.003320269281372497	0.005191984306871707	-0.002322666786928519	-0.001168174929141523
0.003145582430693128	0.007179313445038012	-0.003899122425300341	-0.001427342237404354
0.0006812121413361209	0.0002105153319413185	-0.004015850230235814	-0.002348553749278252
0.001639848375629599	0.000780727149053594	-0.00135995644415086	8.758649959699253e-05
0.004578451266632753	0.007658456022733949	-0.0005749601598959362	0.003430648317907249
-0.005479891410768504	0.01023823368286578	0.003708748997651121	-0.002892532803827925
-0.008544938545618405	0.004829517107527129	-0.001553023009859651	-0.00352558689511037
-0.004574882126934444	6.001636684221592e-05	-0.0009920473441178573	-0.0004083193760344261
-0.004084718257284533	0.00236528149972989	-0.002418196324831233	-0.0006086952588040881
-0.003017333955810841	0.003021917347741339	-0.003864456382353333	-0.001535204737900164
-0.005361711982899462	-0.005707909681763768	0.0003944598132802222	-0.004516020088938024
-0.004516689847873598	-0.005338835182693251	0.003012516628082585	-0.004138906264679726
-0.009865990002740334	-0.001602489806514432	-0.004043775876309501	-0.005567156458663775
-0.007354394291608126	-0.008561888531800373	-0.003110744808510249	-0.006350640881175371
-0.008531525332944856	-0.005829900973336743	0.000122250855604604	-0.004854388534412489
-0.003476315837605187	-0.003067995475576306	0.003211813962784936	-0.001316423406779016
-0.001872703693380073	-0.005313262603812883	0.001574106685991471	-0.003023163325781378
-0.006060155904768411	-0.003393779371940442	-0.001138113693121103	-0.004163773734669559
0.000764747878540346	-0.004365691005141692	0.001630649420142604	-0.003868328799143047
0.001413979064914554	-0.001908074139492684	0.001089121514277833	-0.00145268762640875
1.746232351305488e-05	-0.005314995592526199	0.003419640721853426	-0.002771855930640157
0.004000255127977954	-0.0005341422864093473	0.001504866989151097	-0.003454188300954023
0.005682296627620453	-0.0008305769601563736	-0.000718221913520468	-0.00213554747911991
0.00778996856738196	0.001943374679951788	-0.003040943207807225	0.00125421226565928
0.007436052688124212	-0.0030116206876477	-0.002277860846394144	0.003309585315366382
0.004822770670534581	-0.004802668533837078	-0.003096458062194477	0.002053967499146091
0.00217792728565646	-0.0001421349774456698	-0.001049375751573274	0.001922757675975814
-0.001475354997901003	0.008441316609885353	-0.003768556803861142	0.002514936048495281
8.417345901065462e-05	0.001050893409563008	-0.0002801699560789836	-0.0003257042344195604
-0.004698962286716951	0.00357200226929358	0.0006838694749679218	0.004381498737913929
-0.007502241299886914	-0.0005806972233805104	0.002129961570976867	0.002312098519323659
-0.003800081764414638	-0.007236263839204689	0.001634785104329753	0.004765422273907392
-0.004016829329308332	-0.004369238815216393	0.0003679928123807022	0.004152605556031161
-0.008154055795971208	-0.004219983553841934	-0.001352986376596517	0.00210168516901341
-0.009644808379193102	-0.01344144410940151	-0.0002402554818760978	0.0006237901352528378
-0.007010564113259338	-0.01344887346110152	0.00273102647906758	-0.003606798842897789
-0.001080330113373031	-0.008742882400824197	0.0002688254416779038	0.0007583494884065279
0.001330936253300276	-0.002427899456756419	0.001012085030265021	-0.0006933809269056251
0.001167282366847969	-0.008106178455684662	0.004671201651883622	0.0001768245835731631
-0.004360177684472024	-0.005467061475351557	0.003081593877648024	0.004426864493605544
-0.0001428864048065825	-0.0002302007506039968	-0.004004917525462209	0.00119683510996395
0.0007875375517993859	0.009066795786227091	-0.0002883271800577483	-0.002547241372812342
-0.01363228027760807	0.003452338677939432	0.006841332723681831	0.001151651736603028
-0.02000016241646404	0.00613063292784469	0.005751100704520193	0.0006078649667404226
-0.01118904879269455	0.00170597350777344	0.003431393665700717	-0.0002130386413813835
-0.006262887179192787	0.006674974019532791	0.00244841216293698	-0.0006524649172197198
-0.007781445061671711	0.007042051443792951	0.002787940436318158	0.000284711752152003
-0.003069841769557667	-0.002484144776507833	0.002968349797440852	0.002299414866941159
-0.0019963096312559	-0.003310933060269276	0.001501632820750015	-0.0001966331076267347
0.001068294035801767	-0.002054124256659768	0.003884365375058459	-0.000605192003453584
0.006232684227775305	0.001902866430414787	0.003767614471392702	-0.0005058496400723092
0.006843253594299163	0.00274250159028235	0.0024745505747797	-0.003671435839969804
0.01246460299216594	0.009233839678601358	0.004959787825772854	0.0003224411067669239
0.01494164377873814	0.007758191113489543	0.003308280386245977	-0.0006274680197240795
0.01683212618093733	0.001003214548681347	0.002927157192724539	0.00052098896435772
0.01452437848665327	-0.004323140228216944	0.002930252036732752	-0.001396765096016825
0.01220866501793364	0.002647170237617756	0.003787291232117295	-0.0009091498078961423
0.01337405293954167	0.004505217651184988	0.0002643922773185129	0.0009762803475470998
0.009103159656873814	0.001385893987804729	0.002014258001570347	0.0006792002227096189
-0.007586785243995895	0.001897727832098946	-0.004367964120697321	0.0004066204399523643
-0.0009313759734398503	0.001198378269662318	-0.005408261735717661	-0.0006702463282069145
-0.00608347684367855	-0.00276273823658655	-0.002110941841170046	-0.001483356967279115
-0.005521160933888656	-0.004125821602452774	-0.003944075884483414	0.0003046864622168687
-0.001553285967552795	-0.003340161210006268	0.0001798180442597672	-0.0002659752320868103
-0.004919037301303884	0.0009064516833804478	-0.002256781286670986	0.001302572455939157
-0.001339492404998459	0.00340422103376096	-0.002324910715842631	0.002346924145613096
-0.003734426392381211	-0.0001469710909703927	-0.003973925435049777	0.001264353225631404
-0.003677631662301071	-0.001288083091571907	-0.0005622658062525039	0.005504589090625791
-0.003532390493195577	-0.0002773714231062153	-0.002939481918391669	0.005427516512091243
0.005718807692873667	0.0008803614644605242	-0.001394188126500257	0.001458518008706904
-0.0007183200373016634	0.004944574520735821	-0.001370710383970226	0.003611521567576565
0.001722749161604119	0.001985600458838581	-0.0008458036809414274	0.0008208110401777308
0.004836892461501012	0.006225305441626791	0.0009430207971484388	0.001826251643087675
0.005813487488474553	0.005806455685671283	0.0009836265470879991	-0.001868280726660009
0.01094958973765757	0.01005271172148074	-0.002087531705503814	-0.003245601985528344
0.01352601151357045	0.01997096813961231	-0.00269697623786243	-0.004602477644311129
0.01070488977881713	0.013042384560004	0.001002776365679363	-0.003146756567693859
0.006791297153567055	0.00707799050671376	0.000514114590792703	0.0004262367503267043
0.007930920768818024	0.0003738553342786818	0.001166266914715618	-0.001918613483136786
0.008457433402301751	-0.002742938475229083	-0.004709266278182301	-0.001236836811558549
0.005433430201724849	-0.004024152947087994	-0.003627528212020189	-0.002020439474268164
0.01194077922632638	-0.002993281907336823	-0.003485818176104464	0.001316001768064744
0.001965847660828456	0.001058088800502463	0.001920982950439396	0.000521817533541372
0.005981181802059487	0.006494326331928765	0.002683805320221567	-2.705457194993793e-05
0.0004747927785188121	-0.000429433907011295	-0.001039853771051581	0.0009183604535009992
-0.003242711348286001	-0.00493255000531787	-0.001965919983472277	-0.006764904837941496
-0.008592089853048804	-0.008444893774781873	-0.004548408439322923	0.0004515935607452303
-0.00490767606037476	-0.00432662876450444	-0.004070521448803896	0.005168355758413567
-0.005270863089717136	-0.01009771148525682	-0.00462923327486676	0.004003339096282478
-0.005730132156426917	-0.009976294154619076	-0.005645461318323056	-0.001563504187196571
-0.007408840031315311	-0.01089486569168723	-0.002650316664754594	0.003151333039940015
-0.001983267406998212	-0.01246594053683797	0.002002221061297192	-0.0008287030760842719
-0.003545742109919901	-0.007874400716013658	-0.002304530362612725	0.002704456021656825
-0.002996377776406029	-0.005626603790060305	-0.0003200977554150098	-0.003507903643000907
-0.00345807789522547	-0.00252610543214004	-0.001047340213898679	-0.0007941326668972078
-0.006619046289662286	-0.0006784050920469554	0.003360462696773228	0.004445459656956592
-0.004592929156087596	0.0001360083163165828	0.002751661054581256	0.003653161990458617
-0.0001907802716557819	0.004824077929107497	0.002047090406416117	0.0007560855358570823
0.001176638617237667	0.008452736380329532	0.006054093452135934	0.003918889631034567
0.002230969833525379	0.007222183870924902	0.001637681619437866	0.001863998530399152
0.001353594149094396	0.008078421835444728	-0.0005314568241527736	-0.002662261404292563
-0.002998388080367961	0.009094950582611786	0.0004134541826914858	0.0001160988319545089
-0.001698876192503335	0.01089215355102762	-0.002923251817656503	0.0005631386200782265
-0.004585105726229903	0.007854498337544319	-0.001597800775872561	-0.002699042449553299
-0.002511833366164156	0.006061805011476904	0.001310776813070136	-0.001211516544279571
-0.003610099546397131	-0.001023679792840423	0.004510370813700571	0.003118554322517865
0.001999367943689275	-0.007602946018238934	0.003078118477316366	0.002436859841068079
0.00547898871778591	-0.00935788996686804	-5.823465696177426e-05	0.001954003142840017
0.004075750655855781	-0.009419371172069778	-0.002349644057640107	-0.001046680570326511
0.003668182880122247	-0.01226333968234063	0.0001484754737324587	0.0004743785983278019
-0.0003276429151445014	-0.01194423880136963	0.0007632588523932276	-0.0002966244527005997
-0.003358520083212382	-0.01834604996383205	-0.003585389983718725	-0.00637900868673945
-0.006972521845356345	-0.01288835896489412	-0.0004421031458877641	-0.003896061744129005
0.002261044444839104	-0.007563175164948334	0.0009503715406184864	-0.001067241585832404
-0.001394216528344352	-0.001123449355626828	0.001252400129567325	0.0001517332825320386
-0.003379258967908826	-0.004912747247958494	0.0008216491700010615	-0.0008689051009264408
-0.01228107887020583	-0.004477358954774523	0.002517517003729017	-0.002690575660285131
-0.007969139172115891	-0.0007914802047927957	0.006029011670711848	-0.005949013011576283
-0.008993983008995047	0.001575122359704412	0.001327308704495146	-0.004587459073709583
-0.003235004914379845	0.003788092036587335	0.002950858807862777	-0.006764754213807875
-0.006046650180859614	0.003446331791222863	-0.002315134760319686	-0.005506386898123916
-0.006557466342126013	-0.001131747435848402	0.0005470480879053287	-0.003250511155872403
-0.008475098867460149	-0.0004808330143137213	-0.003094667824333286	-0.003945156691033208
-0.001959501124748477	0.003731666885606982	-0.001693144290920735	-0.004902534661326503
-0.002218946916715168	0.005860557526073839	7.527284221212039e-05	-0.004862080180036887
-0.001648948264465711	0.005469933937081551	0.002742427194179535	0.001291126350736526
-0.0007397388484651421	0.006526026192949813	-0.002888795973466377	-0.002327746320192386
0.0007508006396252246	0.01226674782745025	2.515679629339842e-05	-0.0003778742878953096
-0.001049574734742535	0.009672886939986533	-0.005204265796527071	-0.002032880962375916
0.003528181814792137	0.008827297477444471	-0.001197911613795075	0.002521490965390465
0.001960537068902073	0.004069589384984206	-0.001511269529538095	0.0002061284131875065
0.002743773825891481	0.00412280318212056	-0.0008438039258988932	0.002237419071533853
0.007443188377502833	0.008809837288269702	-0.001259650879315294	0.0005938280728214107
0.009017971871711702	0.003952807687010876	-5.622193516596266e-05	0.0006703875098918815
0.007231668362565656	0.004281890669848511	0.001423166674175983	0.001734676352341351
-0.003316761780724618	0.007519639970065523	0.001432135616767357	-0.0002920613748034788
-0.004125164254760586	0.003407463052688182	0.002509791492584146	0.001340643995812976
-0.001328352308191603	0.00299009917379114	0.0003574242489391667	0.003842643816942623
-0.003249087527881451	0.003345122271724819	-0.002721621128120187	0.002499284622329942
-0.003305221067421964	-0.002961488904414886	4.304612034546259e-05	-0.0006205874780178646
-0.009285966944340581	-0.01095785221391938	-0.001201628040130681	0.002015497292367674
-0.005074745052814021	-0.01708760925105586	0.00117745894707915	-0.0008928582491279917
-0.003982133841421613	-0.01496799115754812	0.002112643093145694	0.003573551524337083
-0.009531868912341023	-0.01090756600556832	0.002045749762631848	0.004473910543041571
-0.002825486631174745	-0.006212090348976252	-0.001144617852772204	0.001826131749462016
-0.01005589768460769	-0.006327451032541603	-0.00345509591096845	0.004546892186638582
0.0009742925066488473	-0.007026918196356522	-0.004126541440240743	0.004303570975924905
0.002383787323502677	-0.005129489727663184	0.000525061663257143	0.007028645291016837
0.0007668676382565954	-0.002258890632601534	0.0008970809196802182	0.007909768831422475
0.0006016700660614163	4.595490965926382e-05	-0.003720466065918484	0.003829794497136157
0.00846878220116443	0.01055421001059954	0.004846555087031217	0.00126731640040764
0.01381148538030233	0.02019575657296916	0.007545335922482768	0.004215108991077531
0.009820249372202692	0.01393412006037766	0.006396335655629996	0.001145174449237716
0.01126875753900242	0.01064414839591701	0.002705705609328389	0.002189309493646419
0.01084429347408785	0.006715373430655582	0.004456683275714069	-0.002301263852695367
0.01150499372206199	0.004005135871769377	0.003459436359941073	-0.004933818775062494
0.009609844873161803	0.001433457833890474	0.00382427354838993	0.0009969485145296028
0.005356078219805396	0.001120374006181397	-0.0008713495426367318	0.0006342915743851857
0.0003318022685518861	-0.004497641037802628	0.0001572391312404568	-0.001352587098971897
-0.004021820693814644	-0.00477527253213457	-0.006685712176716528	0.001912629334398819
-0.001964060360298893	-0.004441263735737989	-0.003350447620170382	-0.001210775119113265
0.00951124065703675	0.005207042782550318	0.002775291877614899	0.0007090292657793173
0.008146022244426475	0.009485449699398615	0.0005776042584106535	0.002745200356781489
0.006393600211882102	0.01381501631056133	-0.001968774120582969	0.0002544646340292088
0.0101272637429659	0.01216661000435322	-0.0004585057823438129	0.0004705825186033962
0.009499728300384938	0.007018253550256996	-0.00230436900407083	-0.003922849438382296
0.007019473550207234	-0.001244519660813704	-0.001860085499734206	-0.002868997581752135
-0.0007365054292953642	-0.003677724993493594	-0.001963879330468388	-0.001969189802956838
0.002698899617958682	-0.005442276570295296	-0.001322792395034117	-0.00293698949978115
0.01107787159187919	-0.00583228921159293	-0.002319827625017992	-0.002208871201627467
0.01818342257427469	-0.006705606792489489	-0.001166642540706461	-0.001859736427308003
0.01269357569158508	-0.002328198866076592	0.003570808826102259	-0.004412321642926651
0.00754865632332558	-0.002753003873382829	-0.0003571995914967791	-0.0007358532599013698
-0.002765579915630682	-0.0065017970413747	0.001669705583042554	-0.001761093487495519
-0.005040185865635072	-0.004703871967197659	0.000842381580276121	-0.0003108725187803471
-0.02434206660601174	-0.006198991859593196	0.00520483303345342	0.003252771992172195
-0.01938035993960458	-0.01234376291284125	0.004218799442651288	0.003429211153782177
-0.02214948236922896	-0.008954894369780437	-0.001572523977268148	2.937761527550234e-05
-0.01670557883020346	-0.008430836360752007	0.001125114127741373	0.001471202554460095
-0.006638828183138444	-0.00820595101103294	-0.002072856535254242	0.002587512164471558
-0.0012691774235456	-0.005813464598746073	-0.003650437148089522	-0.001270956605136066
0.0009447154552157261	-0.004127569441596168	-0.00205051129168947	0.001930939176615952
-0.005342990549515226	-0.0004926079719167019	-0.001120587708935192	0.0003250787244979071
0.00101145968137047	0.00263226555417475	9.85961682411743e-05	-0.001970225589838687
0.002038127552048549	0.003528712661096797	-8.108468294697139e-05	-0.004155668883479947
-0.002568515580371855	0.001758886381757591	-3.87471929352481e-05	-0.0006235213770999838
-0.0008501477537166313	-0.000778716180508256	0.002296532248909122	0.00146950488489956
-0.004221910289051097	0.002940293585832685	-0.005346629690687265	0.00121759151584286
-0.002699309546796135	0.00314285808637222	-0.003264326489463455	-0.005476647437060929
-0.007036259140430346	-0.0007654860437949187	-0.002198936606949945	0.0001501142670273306
-0.001533117901091877	-0.0001432272028470921	-0.001446935953641107	-0.00305811613046958
-0.002522146697833615	0.005520396839607956	0.0009081210023080716	-0.002389030173071124
-0.003137560218496486	-0.001276301252352921	0.004884504062070389	0.0001790647987322115
-0.005632936872143508	-0.002759043556312824	0.007248575305669914	0.003332547624843894
-0.006722451235071147	-0.002042541768947236	0.005939117119713616	0.0008902671366904527
-0.007763636371322788	-0.001967027722680369	0.0008980471054854152	0.002469609717970818
-0.00706172351320206	-0.001945164912046737	0.001513356241619645	0.0008250523694589797
0.001276070603580482	-0.005175750411127516	-0.00189757667795422	0.0001313316949852619
0.001205699039187698	-0.008232577855666523	-0.007136117662674307	-0.0008197407660093908
-0.002821034836767465	-0.008885192521221165	-0.003821338715557312	-0.001572245387477502
0.004545857529248053	-0.004000907840096303	0.001980968542765494	0.001046023326235073
0.001275249857272269	0.006012023313223148	-0.0008072167455800542	0.002336043449090326
0.002327018811795399	0.008508151226401375	-0.00373893411627763	0.0003102237754518872
0.005039102623747649	0.01055463310991729	-0.001938456561718076	0.0002032273568817997
0.004685049622789405	0.01351217507118538	0.0002457741955358475	0.0008164815339963998
0.001089347914268118	0.0059501832253479	0.002522479998592913	0.001375878732422095
0.00204454771942266	0.005428786437770929	0.002069504754367356	-0.001959225542078211
0.004933341199855263	0.005464721793605422	-0.0009640297543482496	-0.003084620516089813
0.006316901760165278	0.004240351562623122	0.003096202118125038	-0.000591907979983487
0.006058960972815	0.006922865486014118	0.002481777827770103	0.002522560199507425
0.008921930738507994	0.0009024278715461082	0.0005625807803208394	-0.0006151383396322417
0.006007572333739671	0.004618931040994475	0.001265590625810692	-0.001884067286741706
0.006710157383221684	0.004819738437426488	0.001373622994438643	-0.002510804994582093
0.007606879082751211	0.001138066854420569	-0.002147078764809569	-0.001224023165987149
0.007052704929401317	0.001520198546879764	-0.001572220585697512	-0.0003571396507626828
0.00728878276035912	0.0003232855207274895	-0.006027471369873084	-0.0004953455950707598
0.0004381498394123934	-0.003268231351679586	-0.004935056330338887	-0.002698627309700828
-0.001261861724215212	-0.006119468516831689	-0.00586475436188622	-0.002985489878398257
-0.002873811011344576	-0.003520634680882153	-0.002950357626617644	0.001320882468118998
-0.005233837868971829	0.006937451980106019	0.0001483106675810249	0.0008138291560764821
-0.002118622551732371	0.0079101202696935	-0.002346892848989637	0.001233648208896586
-0.006092684188898516	0.001494751382082605	-0.001883850838092927	0.001386035734482382
-0.005059233590592871	0.004258006443404668	-0.00350511556971488	0.0005772875634524506
-0.003776760901522273	0.003341072533456744	0.002562096535514662	0.001558187677945845
0.002203988453415704	0.002205583793395174	0.003519738326707099	5.975635695863027e-05
0.001062897092491278	-0.002348885773946339	0.001550361028492196	0.001279307384639934
-0.000700828961271233	-0.008008043290023244	0.002441057947898297	0.00311043634310878
-0.004471376936833877	-0.01258020618924467	0.002730661538845904	-0.0003630756391365675
-0.006637678147835962	-0.0100875100185966	-0.001237317803462571	-0.001889761770445713
0.0004128697492470726	-0.006727421906046738	0.0001262478439652341	0.0005212193314521099
-0.001789305637161008	-0.001672344596156014	-0.002993458712009187	-0.00172976958650161
-0.002978207039021515	0.004366942671497549	-0.0004792211211196073	-0.006157437309258532
-0.004236110453327345	0.01466273960262616	0.003395975845470671	-0.0006019872022035126
-0.001779159490655141	0.009736087224970404	0.004112896525054481	-0.0009119225069126708
-0.003964792942997508	0.01208198434868966	-0.0007670427249177074	0.000450533214412696
-0.006886282782479216	0.01241854550622941	0.001594236739539009	0.002848894543126047
-0.002317671119705886	0.008186733213883291	-0.002232038600653512	0.000191258024849699
-0.005130726688779974	-0.0003713353407619319	0.0006193682448838911	-0.0007525647533245279
0.001553787762511057	-0.008592520445092887	0.002962279362521435	-0.003333320774070189
0.003568856645608087	-0.01069910281788013	0.002961495464830909	-0.0003901066757988584
0.008811150181959961	-0.00998605643299132	0.0007595321554341409	-0.001245086578629735
0.008005772838433831	-0.0149872318446413	-0.0007084301904052943	-0.002800865400343607
0.008472234670108596	-0.01696588676957712	-0.004709751535086288	-0.0008069203264201179
0.01173908727901886	-0.01905944353310832	-0.0007738134384478424	-0.002189823023963209
0.007174604556424109	-0.01300718987469233	-0.006408514783549993	-0.002030339966581253
0.004107833699840042	-0.009369655490910813	-0.001574842160180853	0.002132778488787666
0.0009126769302688414	-0.01340276951318931	0.0005175784660167944	-0.001917694731959655
-0.01564300002127492	-0.01304640937207761	0.0001898513516475948	-0.0003815049695568944
-0.01927463671968086	-0.01094394652171212	-0.00141557680636226	-0.0001663132939221382
-0.01703058232036612	-0.00311866735794496	-0.0006429817536609049	1.837324827988951e-05
-0.01186276808648284	0.002891964409734425	0.005271694185001014	-0.0009955672748328181
-0.002154163010729648	0.002552211871885388	0.00194847908993575	0.003278188517409955
-0.004650281839515971	0.0007072607054964831	0.0006608918982237856	0.00443404496432943
-0.003134221327266351	0.001845372302924602	-0.001460196111437766	0.003118577014209908
-0.003608223025629665	0.004925362691795897	-0.0005529198256779771	0.0002535353788468221
0.002769692365123531	0.0120588544236179	0.002418632042260515	0.0004401880236243274
0.003480534615641717	0.01546899474150173	0.006521434444697638	0.005478716745136864
0.003248455854143342	0.01364035203862593	0.0035632996057515	0.002650277914940919
0.006874174820700546	0.0174390857621118	0.0006768626419138097	0.003281583442003185
0.001050557315583901	0.01485512936387135	0.003516546991669956	0.002317113634242779
-0.009238100810882686	0.004723179436590185	0.001527965229755836	0.0003911986252098465
-0.009499940645288828	-0.004913623941167214	-0.001806234011469557	-0.003201508097281612
0.001822776425259179	-0.00200916681493378	-0.004051975527536088	-0.001274202800478766
0.007879017022791091	0.001195195484297059	0.003646064471769619	0.001016502679328856
0.003695283032512855	-0.0001341668728189213	-0.003686997049046863	0.001398861387545748
0.002868037406199556	-0.01158580465347631	-0.001194970887933281	0.002544527781387848
0.001702119199092546	-0.02115540961730148	-0.001197315840944976	-0.002813983239908253
0.00163075470198181	-0.01327979568902201	-0.0006398339359936408	-0.00075221663479678
0.005163679552342094	-0.007881749229789244	-0.001351155355552976	0.0005908833460531746
0.004007747214869862	-0.003228705494405322	0.003054573961641033	0.001551359065960117
0.004273799882144607	-0.001281483399019713	0.001691061041366484	-0.001764382026016107
0.004961277207753559	-0.007489444149999273	-0.0008815425316464956	0.001368578207687578
0.00324279187298555	0.001582539559408724	0.001953683124129915	0.00102698341142491
0.007139047238259525	0.003424254008250158	-0.0007030557569582165	0.00383256676132708
-0.0003013741665529032	0.007929844190933148	-0.002041779066746358	0.0004535022074251608
0.003043070351070252	0.00993125400999972	-0.003445183487759183	-0.0004131015683774458
0.00655768501738842	0.006538717190387587	-0.001102498702070996	-0.001215374447494027
0.00169391877171536	0.01005863338238345	0.001720734134460474	0.0001660059222367165
0.001914036197747858	0.0131356304427012	-0.002114560514078329	0.002582925386086987
-0.001938827082464123	0.008768931571829586	-0.006194961619878083	0.001024480410896002
-0.005218015013654011	0.004806876279278862	-0.004477904445506383	-0.0009651213093090405
-0.007130016468943759	0.002408813835273407	0.001897586199988244	0.00129823428594495
0.003834386418585571	0.004013469620905832	0.003627911501026549	0.004107883997979154
0.003890325865852609	0.007628631047482769	-0.0004939678390304226	-0.000426557138178942
0.008861480923799899	0.01349598853424415	0.000408839838679446	-0.002540624302535007
0.003974727347119362	0.0124692611199345	-0.001455448862033215	-0.0005960492141260259
-0.001773414681471925	0.01518780266197121	-0.004005638592559633	0.0003511799987663971
0.006785638778967761	0.01622606310726266	0.0001681062623450497	-0.000169500519205509
0.008453764791651037	0.007975665061692127	0.002442915475697079	0.0006617429286711714
0.004646216680325878	-9.869476911835904e-05	0.001601933994815182	-0.001987214678105973
0.004052807247452871	-0.002638223867254706	0.0009391118261481961	-0.002552387066933749
0.007379870015455959	-0.007867163956566446	0.00457650545738902	0.001609973603511126
0.006938269869603875	-0.009132972251020052	0.003215416017279364	-0.0002306497279747815
0.006300112167153952	-0.01242574808651645	-0.001652969864482899	0.00112650051907438
8.602941379409935e-05	-0.01340019141968118	-0.0009830508980081564	0.00069033052470649
-0.01408463332221375	-0.01487760924576702	-0.003393868202497824	-0.001234171599842957
-0.01285647612026129	-0.008883951275012576	0.001615082921576374	-0.002086754711039479
-0.01181219825814955	-0.004113154239375553	0.004282864082120572	-0.0009043572479877278
-0.0104351285059993	-0.009195368430169984	0.004659006535888711	0.0007526783999658252
-0.008610060036627848	-0.005104287784041841	0.00688841936372455	-0.001045524492546713
-0.006842768233952042	-0.003565038424336553	0.002447099352102154	-0.00422849063524067
-0.007775290681755592	-0.003014435968820521	-0.0001197853000940527	0.002659567617232838
-0.007177565116590968	-0.0005214565877194273	-0.002024510094555001	-0.0006263528317153509
-0.0001673273729380476	0.002579458017169942	-0.002091497128997405	-0.001731242396599334
0.001485968086745174	0.009168834512438606	0.002173972711535914	-0.0006505731329372945
0.005481098735378253	0.01679730278444444	-0.003200277108152457	-0.002464517647921844
0.006487159412369311	0.01721305705175001	-0.0005446932294342912	-0.0002944711662507708
0.006080613147306209	0.01177371053380309	-0.002573913205725	0.001080986904183414
0.005140203915671985	0.00610928076116051	-0.00191493234401808	0.001116937214059424
0.005972049073574873	0.002572743298404035	-0.003175315182114683	-0.0004233780200508885
0.001731663677523501	-0.001011432497893153	-0.00172854182592639	0.001880325451535551
0.004643304010205641	9.265506904541991e-05	-0.002459033597096697	0.0008906388022818021
0.006704369305635947	0.002462849331947296	-0.001756996792345595	-0.002355915888430527
0.004122857556933533	0.002125940078725134	0.000667357502933577	-0.001712199980413189
-0.002080230421400419	0.01048274366974736	-0.0001807474408219889	-0.002680159180864717
-0.0003230555523266675	0.01238519047549575	-0.000452879153555911	-0.005119205039679038
-0.002319487410894192	0.01348082044962371	-0.000332753984301973	-0.004136293853749231
-0.002231770742288653	0.00367160674974589	0.0006534334502980464	-0.005059520835089656
-0.001584246843929166	-0.0003098908765680508	0.00333131689402341	-0.00168218795249395
-0.002144984427759717	-0.01922894384206636	2.787054772314206e-06	-0.001080656455950602
0.008055262582663753	-0.0117866257940343	0.00155067538448711	-0.002798963666371396
0.004982043551745844	-0.01046128198690294	0.00282881194539238	0.0004195656616852727
0.002435435943891558	-0.01712138200278267	0.005693745241858192	0.000562049649800028
-0.004138942336050395	-0.01226617857714472	0.007073150483640904	0.001558138095458186
-0.003906937461678422	-0.01410542410814466	0.001498771029436231	0.00152840570088798
-0.007323478256026284	-0.01793036139617747	0.002436247614859964	0.002652432832455132
-0.009479544912314284	-0.01707196684954942	0.001552640457970264	-0.001055514114285712
-0.008390096120851676	-0.01288536928047802	0.001497853867868153	0.003126610718762731
-0.00661962862672784	-0.005956462632999067	0.001893860482699995	0.0005565062576032248
-0.006873326346812699	-0.002485817503911318	-0.001666462085806803	0.0004040895103948251
-0.007932571918405859	-0.002956427496738949	-0.002611330351463743	-0.0006900465655910522
-0.007330076681034303	0.003116359827814752	-0.007432577118277678	-0.001836347577379621
-0.007520055322849183	-0.004579331829047045	-0.005977396765077713	-0.001300424428099465
-0.004682600744238417	-0.004296636802955317	-0.001470794366149227	-0.003126995327867313
6.710709093317538e-05	-0.007997109001241972	-0.00172262165053148	0.002366478778462561
-0.0006913085266075889	-0.008191762410050134	-0.003499541183169708	0.002712296421204239
0.006191217477915015	-0.008841432250213634	-0.0001202900159581592	0.00353869633392223
0.004745125128246289	-0.003457201770861601	0.002009045507374845	0.003084774623277718
0.002300166287345449	-0.003751844138077594	0.0009412699656534014	0.008224034304879032
0.004020315532294963	0.001573741418686706	0.002254924733366654	0.002475380064419969
0.003751617434624929	0.004280415820669932	0.002532852250950544	0.00499190238586307
0.004901539672052017	0.003704892119279104	0.001747780371933523	0.0008795751723427211
-0.0002926808573761125	0.00436257809714504	-0.00224837315793476	-0.001988349103590946
-0.009851073572592474	-0.000574887854124589	-0.0010076895622674	0.001054399905854902
-0.01070451841156121	0.001386416350985601	0.003391931235431357	0.001639563087978558
-0.01078070992463277	-0.00470554552205805	-0.00292679472570932	-0.001878777377494006
-0.00501226740255073	-0.003026415326480032	-0.00343672721877778	-0.00317352934063583
-0.001576933337182714	0.002969691270561366	-0.004762497121621612	7.566490218725033e-05
0.0007487142966876835	0.01034417513016198	-0.003255242537813479	0.006203579111829646
0.002898820768534837	0.01346727570830122	0.0005664675511329772	0.0005749532363070465
-0.0009359792620486768	0.00661869181252616	-0.001888416194690267	0.000980516599677412
0.003308192236718091	0.005419624924251621	-0.000870164571528719	-0.003084341248838181
0.007199886420419594	0.003473747042653805	-0.001696145575040622	-0.001270930973801883
0.005693073231403277	0.003387121885700558	-0.003087003428662922	-0.0008993739076710843
0.00593042698063336	0.01234143618764193	-0.0008795776322145787	-0.001952288197709708
0.01131558602301579	0.02082396639923375	0.00197915961194971	-0.0001512666440529733
0.01159921325950119	0.03454549511069385	-0.0008895284194329523	0.003096479788136438
0.01307529037994921	0.03053166521418835	-0.003130119523744078	-0.0005261311863957008
0.01251967261522777	0.0181783597190708	-0.003785727908312808	0.002507310499814874
0.01006886932386641	0.007296598232424717	-0.002895597337688412	-0.0005154825515403329
0.01167858958091491	0.002393345996158326	0.001343040226036091	-0.001228244622179184
0.00570724041242845	0.002414927780883044	0.0007495440532245639	-0.002610674143467861
-0.005159515653030853	-0.01162746706613212	0.0009281981372349613	-0.003719820350002297
-0.01081172795208668	-0.01640342544571971	0.001297867544928514	-0.002534132879609833
-0.009473496138280134	-0.02454630594574294	-0.0047232059084738	-0.0005976630157180233
-0.00837315504297443	-0.02370825345820251	-0.002250935607818401	0.002536785081740804
-0.002199140181499254	-0.01538255200004651	-0.001870433838304877	-0.00203416433142469
-0.001830679830726182	-0.0100262013728592	-0.0004415016383859277	0.0006567957231719576
-0.001030698535737973	-0.01025760736129649	0.001911416982292641	-0.001408419283725391
-0.005266593465920666	-0.01422757892190158	0.004621088820157566	-0.001499583477337761
-0.01045288277547701	-0.01465093012484778	0.0005408028580378553	0.0002330169099950339
-0.01292172415376861	-0.01856519245309133	0.007252006326213753	-0.003123379984871981
-0.0075371498316096	-0.0109173061192584	-0.001086125557368941	-0.002801729055858291
-0.004662816264997519	-0.007191441071378812	-0.000512139513256063	0.0002655520874767616
-0.003608610612217341	0.004585612932413641	0.0009982781401387567	0.00230096958930519
-0.0005554827230964271	0.005117047585379776	0.004867204727194304	0.0006835377102503732
0.003238194537137516	0.003138690123668148	0.000908792315144209	-0.001153150213924652
0.007405733460684675	0.005077769435839832	0.003296712077359302	0.0002016744346619452
0.009576712765380859	0.005557412123111514	0.003143802451983745	-0.002467075369763794
0.01216448045165689	0.008140633764745057	0.005264175615866172	-0.002551060085895004
0.01097584023424332	0.01513501084120829	0.003084536650564717	-0.002358193242384883
0.002725016474682272	0.01425416400634615	-0.001184984947505961	-0.001599820517109707
0.001217384087129153	0.00592846091062254	0.0005687919318404656	-0.002019844669947412
0.002570431802302041	0.003587939156306342	0.002477775096751418	0.001250483402741576
0.0008379979315255017	0.002882057157222828	0.001743715258239184	0.001987412836511492
-0.0002367922675051151	0.001356765396799605	0.002368798822443804	0.001277288526659753
-0.002626952264724165	-0.002835064334695609	-0.001548959301801206	-0.002286750087268097
0.002225042589897593	0.001072890245934486	-0.002774617841059927	0.001396801427826367
0.0002945214541162394	0.0006122269899054748	-0.003899553187329409	0.001128568384854451
-0.009632229897720382	-0.009145948219518231	0.0028636379892453	-0.0001753963212445619
-0.0123707307070981	-0.009772615124099368	0.007828522870971572	0.00372742234362424
-0.007791640746428737	-0.005460921898455775	-0.002004006517904503	0.004562151742528252
0.002989107658166055	0.006324303025769897	-0.0001787790679440109	0.002202833595792821
0.002018484241900631	0.008005352098404965	0.005108094707177408	-0.00131658757037498
0.004847743527489213	0.01358643099209059	0.00182202037809718	0.004992238348663333
0.004556493587880156	0.01238324803878843	0.003026839133555465	0.004294832616559302
0.005581332133247228	0.009927844573336638	-0.0007074342532533512	0.00660777880238021
0.004416963922884484	0.01260585449840021	-0.00403705460098027	0.002702871308769893
0.001558537793625666	0.01508734422498629	-0.0008002312137522928	-0.0003177712459589517
0.003670445747690181	0.01390043473364714	-0.002120482726321311	-0.001385282934905388
0.002867653766851047	0.008552756443133226	-0.0004490663431302471	0.0005420556914805054
-0.001036881738183811	-0.0004001937727787395	-0.002425082686195627	0.0039582510817065
-0.001624987124052472	-0.005644576122934331	-0.002922192736270543	0.001790030316774156
0.005315842629665414	-0.0004323527384368383	0.00407466452934175	0.001648082854108528
0.005681287393073131	-0.002664489293467636	-9.316372091254994e-06	-0.0003045673296810322
0.003420126937294164	0.001384128518002288	-0.0005126795745310067	-0.0009455068468287584
0.002661615881729159	0.007495120761002642	-0.002172981977664607	-0.00225475133949434
0.004938572131067646	0.004058838823072343	-0.0001603399048512218	-0.0005009078977938785
-0.006220416617778424	0.004181648603463674	-0.0006053501802400935	0.002094694522912281
-0.008289133349267811	0.004831360122607048	-0.002831808841661228	0.001468089644783004
-0.006650274261900841	0.002285658648583083	0.000320487224459332	-0.002499898095955683
-0.005993213412126973	0.001230558408156549	-0.00174518816827525	-0.002995959972338003
-0.004819617890804758	0.002470217775958809	0.0002786135065513245	-0.004503331551622476
0.002346693757007557	0.00014939598767263	-0.004007202358871623	0.0004032274234581095
-0.002528479558474144	-0.006428124802830179	-0.001569048577702352	-0.004243695591247996
-0.002357141785194835	-0.01275078455907596	-0.0045116275478696	-0.003967302339071237
-0.004816313933985185	-0.008168209400969156	-0.002106566106085182	-0.003146574353512908
0.002654215504347873	0.002606830298644456	-0.001519225258240839	-0.003602754499682249
-0.0005555231827814102	0.001679853260162603	-0.0008852004017062638	-0.002988808141769752
-0.0005160457188254212	0.001873810772641974	-0.004166338715632963	-0.002597460591552292
-0.002396870443932686	-0.004022626385268234	-0.0009078999791515793	-0.00152261743985596
0.0005704933291498731	-0.008000150048194401	0.001338556246381614	-0.001293186049336167
0.0002386888829396617	-0.0132119746724051	0.003360447646855193	0.004614163256197436
-0.002294847097793157	-0.01279381874867686	0.005497606216625711	-0.004925565645632912
0.002722672297250706	-0.002169615879754494	0.001487084257596313	-0.004332797858542373
0.004154383229885027	0.007205288157794429	0.001540903101025157	-0.001533363674786604
0.003370372870290368	0.005761150119019696	0.003199300632790682	0.0004957478100492715
0.008030374811968409	0.005643242295053808	0.004114553159736739	-0.0001845250922517659
0.01162228559624939	0.00199265889612483	-0.004691027927378755	-0.001128541939100331
0.00589118335802901	-0.004883888335065396	-0.005276232617488673	0.0008954648744717572
0.005655705216555795	-0.005561280323018412	-0.005636444125335744	-0.002982924529101317
0.00468254576821223	-0.0106364422312208	-0.001664148873287797	0.0005071792731854772
0.0001468036520242862	-0.02460918219846694	-0.0005741612823627364	0.003955294134436375
-0.00459329429498445	-0.02716560147955284	0.001688780735545302	0.0007274676010824801
-0.01211327635477931	-0.02874658025349157	-0.003959557285197095	0.004421053228959471
-0.01471681369557042	-0.02315172960673126	-0.004289860825840503	0.00238003194992288
-0.01320653317093345	-0.01697099796261187	-0.003616178090094015	0.00235807169181579
-0.008314327697614272	-0.006193973759375235	-0.001461053287774532	0.002379846341620551
-0.009785951145397591	0.001969949334971942	0.001281906100591339	0.001097874597877417
-0.002337887061290705	-0.001317445989731602	0.004304789963795443	0.003446038903079147
-0.008811991802885463	-0.005482796873280402	7.611248962210525e-05	0.0007865666924726098
-0.003736078399972559	0.003651680129853137	-3.24500130493192e-05	0.0001093034049371792
-0.003266254174605963	0.003827086248594545	2.989743985589868e-05	-0.002207233460535804
0.002611733292594869	0.002498906141553263	0.00201421100538485	-0.003365331101525179
-0.0009722188233944477	0.005366493458955204	-0.001814374808099857	-0.0007639531115744058
-0.002461435398434631	0.006484156406002665	-0.006040304588567363	-0.000168117548281985
-0.006068030160898882	0.003167660220488579	-0.005247986749721661	-0.001147069016157547
-0.004183867113851708	0.004661746153739814	-0.001015636405313793	-0.0004769195804453925
-0.001540085331414829	0.00890187966681902	0.002432728352747867	-0.0001456212642502678
0.002064639605507271	0.005285795631903284	0.004327728394051168	0.00201906112014236
-3.470254353111666e-05	0.000253587451084388	0.002917599631684724	-0.0003289070923384234
0.005348785251221009	0.002296995592985634	0.002531455504356619	0.002547208092012919
0.009372103853450015	0.005766498504812332	0.002271000774387492	-0.0002593909510051752
0.009567575318902047	0.004637673063433184	0.003684717743895654	-0.0003391012208671276
0.003365911958104364	0.006824971117775305	0.003001862932819522	0.001199505017959767
0.007121315991934041	0.005289333903070368	0.003958209585146337	0.00232444090478226
0.007034086574409888	0.0007818553490096113	0.005912426640008047	2.691209651656568e-06
0.002651859587111484	0.005190206813176503	0.005938711888024837	0.002111378934348335
0.003108882294957606	0.003549923856814235	0.001720353768249322	0.001177299776105846
0.006563047406906853	0.006706606645668302	0.002992740509623261	0.003326291564633977
0.00445607845645462	0.00720458920027853	-0.0007172540966152901	0.0006537601516817282
0.006021997615024035	0.008056575558633698	-0.003217514372777451	-0.002046180007988327
0.002385850845517688	0.009356611136642242	-0.0002758481251125308	-0.001104041595087558
0.005042468601894842	0.003441118549869847	-0.002729372812492407	-0.0009104435767286057
-0.001174215128382565	0.001938313446837201	-0.003274660749942018	-2.643097158760598e-05
-0.0111299802476406	-0.001118015115891886	-1.705762839990292e-05	-9.28575830650288e-05
-0.001206024685295655	-0.0007069008054904344	-0.000657037358000979	0.0009716819571651742
0.001532594494889989	0.0001522617624189666	0.0001477445715617279	-0.0002332092008794083
-0.000420067740414218	0.0006014686425548067	0.002037000540394798	0.0003692637026338862
-0.009023164744286539	-0.0002698335191091806	0.0005225081994669526	-0.001365587338004012
-0.006828596953255225	-0.001619843053745903	0.003689472202280547	4.913827033796122e-05
-0.0004694707137476213	0.0004202218225289378	-0.001475463947130856	0.002466292895839558
-0.0043731036299572	-0.0004131782002162229	0.002946166067706548	0.0008372158051471675
-0.004374668461940388	-0.003383502004802208	0.00226228590043699	0.001155006031154
-0.0005569994442843767	0.000248596748226583	0.003520520843688946	0.002347811053359746
0.003228825866956287	0.009006547384631492	0.003639893814729768	0.003460776699037096
0.001558361554055467	0.0116672012097682	-0.001450866430144878	0.001235690693962382
-0.003522251848493467	0.00172558458277313	0.001172041234708118	-0.00197011242504224
0.001904758840365163	-0.00737372866992525	0.004439806040319263	-0.0001784228351774812
0.003742151123591305	-0.009874175343929811	0.001083875799954025	-0.001100351618840356
0.007333288945964298	-0.01128498529229505	-0.003253146048111586	-0.0006935882380751531
-0.0003236850210068967	-0.01061754701621649	-0.003106707685397338	-0.00248153353951071
0.002571681696574085	-0.007713022874068202	-0.004873728002293015	0.0004296626101909381
0.009345428819133594	0.001773736120708851	-0.003878258672997428	0.001165161695284062
0.004679950048750463	0.007260381890294491	-0.002959569651874282	-0.001278494988619279
0.007660668871395311	0.002079870754462352	-0.001994229937092057	-4.402084066994403e-06
0.004615009945888529	0.008766689228185933	-0.001854050955332694	-0.001108344183287955
0.001415586776726187	0.01071557894987695	-0.001926642914641822	0.001079588892026745
0.002751032340825961	0.009110848572373475	0.004139900750450586	-0.0008183716908080188
0.0008051268914594876	0.007075888337014387	0.003348583374250996	0.001887056031742226
-0.001390015846667033	0.002643204223962964	0.003429956804702875	0.002729440528296193
-0.003576688601091864	0.0008179066896109521	-0.001181536425958947	-0.003868482361262407
-0.008182764216766145	-0.003397221239148347	0.000821137409161498	-0.001672497875769931
-0.0006756733404000811	0.002825306665558046	-0.00165981637550728	0.0008191389324293508
-0.0006593665739713044	0.003223830942185032	1.787401128149649e-05	-0.003087440745819108
0.002870813469370729	0.0009754277478522811	-0.001734843549148167	-0.00121653924315097
0.007645848376739303	0.003381744650386722	-0.0006352480155205339	-0.001382501865069948
0.004305126585504444	0.001305527808581383	-0.00190976603182359	-0.002085443819622613
0.003157451672100574	-0.003940900264458237	-0.001231705882076919	0.00249577301685595
0.002476699534814493	0.004163360101641451	-0.001600994646819999	0.001012211297179636
0.002362668162475234	0.009938991136785029	-0.002809564981471873	-0.000738542154512193
-0.0001799697877474762	0.001872433152225098	0.00254692645811069	0.001440272160112266
0.0005410635509339754	-0.0006230800019142818	-0.001953803701015671	-0.001322179150567974
0.001198911562168862	0.008933932260138621	0.0002329324314874126	0.001724635010745189
0.001482983189343058	0.001134440151615791	-0.003432400232364635	0.0007321201154541666
-0.0007638098521086327	0.002696691305536327	-0.005220090891243637	-0.0009244890379626378
-0.0016036172694198	0.003418768536987041	-0.0005356479551684561	-0.002708125119757729
-0.005019505378513759	0.001348991373791546	-0.001315237076782172	-0.005404998296283478
-0.01074867245256217	-0.008507613125985376	-0.0004725615414321075	-0.00353177747471375
-0.01615916314481394	-0.007900752979754807	-0.002855549006590174	-0.001537335571324173
-0.0180959583679205	-0.0181250869308779	0.0002123267459457332	-0.0004324353734403642
-0.01623603068877235	-0.02204582203845912	-0.003140222867030044	0.0003117027451306224
-0.0114985457413407	-0.02029522460706782	-0.006272798583628024	-0.003892444413778658
-0.01242618684282872	-0.01904261188925141	-0.002650049779007691	0.001530302272333093
-0.006267814071585952	-0.0107832090339753	-0.002424635755928419	0.001143738953526283
-0.00521185873650936	-0.002444164377539408	0.003549284273302942	0.001805574306470934
0.00046912345568683	0.0006258760791471309	0.0009288740703513745	0.001032678356228867
-0.0009900213787693813	-0.0007516808603718135	0.000720859624764029	0.003499050238208991
-0.002344738726308123	-0.001030744650973201	0.001017843166069241	0.002008519980670866
-0.0004916914081408049	-0.004116580465461038	-0.002257539663713524	-0.00182656890671545
0.007402096925974959	-0.006267082344144474	-0.002121243602087143	-0.00107163086862355
-0.000198526302120531	-0.003803489515805459	0.003967108043187428	-0.002986247555374905
-0.006132229166268197	-0.003962172872037746	0.001252694060578622	-0.0006022766014999367
-0.008593556581039599	-0.007817225034122518	-0.001905925449687198	0.0004722306673746681
-0.007012476775019342	-0.01005085766030095	0.0007471958752365082	-0.004575386748813073
-0.002377200826625785	-0.003800052005344114	-0.001108349396740484	-0.003758608003390077
0.0009069321875017217	0.005656712192629265	0.001293557923909736	-0.002649047360671919
0.006463387207911574	0.01767535640694864	0.000310775072370847	-0.001593459399004005
0.01262147181485193	0.01921231421194556	0.004418918362532817	-0.001067703493579073
0.01166603535289969	0.01838670555696309	0.002745596938273671	0.002835467695798937
0.01269559931756287	0.01417348120844678	0.005543206103441612	0.002271391682789139
0.01705738859339056	0.01912265859229208	0.001038209577316347	0.002782247388725393
0.01156547904098006	0.01828906904649443	0.00469614744726649	0.0002428436682088428
0.01417281473037627	0.01189291765777292	0.003434148931263883	-0.000191969301977637
0.01307993727813563	0.01439935826527061	-0.0003343759932577063	0.000105975042259181
0.01423377568670325	0.01073222040913484	0.003817966726612445	-0.001691864878824232
0.01025730424273902	0.008420827429911759	-0.003182543797247945	-0.002649808569936437
0.008350276497481128	0.006131674151345652	-0.001160462726835917	-0.0006310934213242321
0.004179888520127268	-0.00631404939599603	-0.0004720304671479334	0.002298643183757378
0.003527488947672431	-0.007358423899402382	0.001106258273776009	0.002222053903428502
0.0006777748026974234	-0.006870074451669799	0.003417743138872849	0.001781075902337676
-0.000775104126011129	-0.002144900651507344	0.00255692304191574	0.0008749878650635547
-0.003407306147237222	-0.008928894793488426	0.002224086181590244	0.002385847064258129
0.0004502049386396148	-0.01172749316906159	-0.001897599654630049	0.003243315241184267
-0.008075696855405629	-0.01164505226357256	0.0007276376801975035	0.002672721331890641
-0.007657815406666415	-0.01303270904345679	-0.0009712991575522469	0.003275692229829491
-0.01073290435047707	-0.01047749295772852	-0.001057097955059722	0.001456378060395341
-0.006464608046964668	-0.007111513844796134	0.001713417166673032	0.0009530965464148104
-0.007651749162948879	-0.006781306902170434	0.002872604407805102	0.0004956593995068595
-0.004136703845826016	-0.01041207096278742	0.006087085009757029	-9.063695028868335e-05
-0.0006746212977502733	0.004163564543439037	-0.0005322387210935824	0.0007187694416162936
0.001850048946272258	0.001650958716091167	0.0001282458567353607	0.003483391278413117
-0.001586746920953195	0.004113565727108328	0.003966230385996253	0.002277602789860106
-0.002318172686978803	0.01304370871946673	0.002756015314821553	0.002014537119100831
-0.0004101765478599734	0.01306868805137559	0.0005270772669074342	0.0004599782615201461
-0.0004122359916050994	0.01333991117969965	-0.005901721948344159	0.0006350722321924433
0.0008322717812907345	0.009299206531713738	-0.002369987317731605	0.0006246325131112616
-0.003856484968399317	0.001869833156877462	0.00117141655280324	-0.001884009820747128
0.001809326689628234	0.0007143805705431929	-0.0003619050010233881	0.0006704394340965593
-0.0009084236581224256	-0.002289116740632865	0.00227922060279562	-0.001221489872882751
0.005642473130240107	-0.009057779037959898	0.006036688549437481	-0.002108392615368912
0.001370867565442337	-0.008158143250204522	-0.003847040812053415	-0.002847537994287971
0.009209053288297164	-0.007116518414853413	-0.001332565335863823	-0.0002338406572276147
-0.001306836560310522	-0.00516739340133475	0.002515615353379425	0.0007693272447491401
-0.004816445516555162	-0.008156924821302029	0.003645105783433257	-0.002572430757509802
-0.005919027091078199	-0.008142686526751097	6.408856146749301e-05	-0.002443390376616589
-0.00873318461751656	-0.001879085657466737	0.0004441204724334926	-0.00250949473738072
-0.003591911845640765	0.006380133580827209	-0.002514533067523093	-0.001129449792042574
-0.004418483738516053	0.002615041654069662	-0.0002543191494291631	0.001188176512972625
-0.003674024430662103	0.005318568710984169	0.001864090701416232	0.0001260330502928694
-0.0004215613051984229	-4.530383247936266e-05	-0.00526015668056507	0.003922120788309438
0.003146808597506085	0.001531531610994637	-9.704614880974476e-05	0.0007947792229231462
0.002970284231740209	0.00763509773376277	0.0003103225543001205	0.0003860571759246592
0.002560317340781155	0.009045281564120199	0.00169723673286595	0.005038671803351867
0.005656577499262991	0.002236531299082843	-0.004011059759208751	0.004269603313133812
0.004727434098173617	-0.01066147397018046	-0.007844075946790766	-0.0004521796886467233
0.004510576099649263	-0.01145383269000823	-0.003329305498504378	0.002482563277192563
-0.0004187287398532654	-0.006410340565905679	-0.008443071672459862	0.0006231137960114611
-0.002471698821295278	-0.006576080349051656	-0.004591417217009589	-2.495174818124203e-05
-0.003161097842071579	-0.003559453026713785	-0.005601647371496015	-0.001170355089568137
-0.000878998586748543	-0.004205076057045674	-0.00693194141813742	-0.001971625252728296
-0.007520184177685309	-0.007854221663840744	-0.004564797030921033	0.002775228032607747
-0.01382756862703627	-0.01211875739744039	-0.003961500028980854	-0.001657037933805804
-0.01118677700169381	-0.02289975823154124	-0.003720788665919971	0.0003327816845127307
-0.01789296837792859	-0.01956124073358109	0.001245823591749634	0.002938699770375899
-0.008726091500771809	-0.01219362151304192	-0.003044726233838358	0.0004002245477018841
-0.0006338753696255247	-0.006781252421555997	-0.003932324225118867	-0.003805047134379761
0.009721297571749209	0.004104404194543377	-0.001532944011615067	-0.004066428994450803
0.007927513924830609	0.004752487704356552	-0.0005166783258985812	-0.003897474643020671
0.009076833024672663	0.003029869705589403	-0.002114584178055594	-0.001437703316348706
0.005171528215226445	-0.002133767268178265	-0.0005078862057377401	-0.002786580544511045
0.00171421044078937	-0.001583696313542009	0.006958240456594855	-0.0007510210861599544
0.0003710619354408955	0.01109105568626245	0.01183785824888068	-0.002214527539611429
-0.005653955992634292	0.008922680888328484	0.002848741702658001	-0.001178707393596181
-0.008582325221894579	0.004477673889464354	0.001682841208241179	-0.001823823205383948
-0.005335386633137658	0.01024570513592868	0.003792401255305428	1.853398913187563e-05
-0.00369326887366932	0.007855221283866388	0.0004131997039063635	0.001542109563628425
0.001866309134355931	0.007987108746641467	-0.004269338769321594	-0.001238463727174264
0.002946916399200528	0.004916769180420965	0.0001625968872039522	0.001839261328726482
0.008107486899436156	0.005589001178450785	-0.002288517483348258	-0.0005932745522923976
0.006521338807971867	0.004887847790921765	0.0002587395038527127	0.001405996956171069
0.004722915826022068	0.006114747682486498	0.00315928421983407	0.0003942409068234625
0.001948618494671016	0.003446295436482955	-0.001497160385873542	-0.001215685323678662
0.002556950193304298	0.005307292054309257	-0.004312505171612665	-0.0002908349267721855
0.007150739212090997	0.007596347954872321	0.0011245177787127	0.00198182989532557
0.008928436768719865	0.005157610871085822	-0.0001582269988037165	-0.003623348908435338
0.007885331475954702	8.986853780192826e-05	-4.227223286732963e-05	-0.001234882057486975
0.004350193364667956	-0.0006729141124799387	0.0008898657341613872	0.00128002714500581
0.001887175759380762	0.0002550136710665046	0.00197923140349998	-0.001368197326411276
0.004792675480291021	0.003448731015210935	0.0009478386830095262	-0.0001222415430342536
0.006824898355627863	0.009961014859041443	0.001130910173742339	-0.0008133482792084296
0.005115770910472463	0.008943510785100134	-0.0007160457843559484	0.0003158420330643185
0.001397642163997786	0.00527043189560272	0.002799329296685067	0.003196644177370752
-0.003200153535340303	0.002358140471134158	0.007745276870639116	0.002223955507314712
-0.001438465921512475	0.009260109926658908	0.00206319266252135	0.0007372546065501486
0.002933857578800886	0.009253473853099426	0.0009539728808560756	0.000314609918075752
0.004454317710433188	0.002878414355008206	0.003195363496283455	0.001212477224293801
0.002970622293994358	-0.002307819521957097	0.002783557422378058	-6.913182674469928e-05
0.003633168448264198	-0.003656000014439656	-0.0001672767058911465	0.001274826387070267
0.004978504995470506	0.008757153560627623	-0.001299095082705516	-0.005565617223041484
0.001874701855157415	0.01248151138957543	-0.0004576251992147815	-0.001327265577523771
-0.006124020320942183	0.0104025048343828	-0.002560939058971419	-0.003115594958955391
-0.004889353232014694	0.01031296977863616	-0.002902935213758689	0.0006984037099941783
-0.008619303695044232	0.004267143484244468	0.007934699898566542	-0.001185250236579283
-0.007023163345267733	-0.005039707718741561	0.00754950531777119	-0.002445095752906413
-0.007214078434363264	-0.01095493285008485	0.003209120451140036	-0.001789722676403089
-0.009948629016262327	-0.01062558620251217	0.002404033510493239	0.00303829611641558
-0.004704664484844225	-0.01109580200304871	0.001151024053058794	0.003729454972705745
-0.005008559548954819	-0.01040577579097158	0.0006254166731669975	0.002928378036685982
7.14997020410859e-07	-0.01231426597876155	0.001807650809721823	-0.001059753540449715
0.0009448545522951143	-0.01020393555872075	-0.0002495307998168071	0.0008028285509435053
-0.001109904292499972	-0.00735722238688058	0.001520091972893597	-0.002306037458440514
-0.008196023083368848	-0.006568477451065161	-0.001322245723634345	-0.001711885973114008
-0.009924804980500964	-0.003213744631467155	0.0002975041008399723	-0.001238425516396348
-0.008989965364993281	0.006229035275838238	0.004053348628346008	-0.00359965716009736
-0.006228788704137011	0.005548882416502358	0.003754858520154106	-0.00267412803196717
-0.002211733984508548	0.007111153535862139	0.000325374783506468	-0.004310673818402059
0.001256158931393857	0.008251251639752847	0.000912478133269368	-0.001226798150247291
0.002383954221275515	0.004416333075579483	0.001889954545651945	0.002208618945133143
-0.0001806667037916591	-0.002529385165475906	0.0008277744380330015	0.0004377354606838234
-0.003092476939990273	-0.01650600334280887	-0.00078971497992819	0.003073044266841038
-0.003921865026308397	-0.01016251972210023	-0.0050776670445508	0.003929248085849622
0.0009600018668520326	-0.0008519009138430731	-0.006810725102340348	0.001749081096243755
0.00368828709344678	0.009085241818345115	0.0003949575153602193	0.005318413102882834
0.004477822994564924	0.01121251656625887	0.003437490678565205	0.004550633383833201
0.01023119117022105	0.008878328083871392	0.002376163352418076	0.002768888268920766
0.008364793812316139	0.007679924816999158	0.0008873740642911711	0.0002258390103813658
0.01311104861020144	0.009939353249169216	-0.001288663004355455	0.000284193566067479
0.008759697968115814	-0.0001010722702264511	0.001048104391900324	0.0007939090985854796
0.009475704067000235	-0.006208908543854542	-0.002227277238043861	-0.004374560849937155
0.007069568349980204	-0.008869728914898052	-0.0008276204719536858	-0.0006413229158038686
0.002607030493384074	-0.01209820419271243	-0.006676452017630615	0.0004143574653426942
-0.0004979114763472081	-0.01422119317324008	-0.001870073564530055	0.001587938774883183
-0.004009007061218914	-0.02030348837832433	0.0004344947972269917	0.001381690599955745
-0.003373249542435377	-0.01958191216321924	-0.00206278062702034	0.001458744153293197
-0.001713801673018302	-0.01738609667685938	0.0003904361381910611	0.0007958147891032948
0.002884315179758268	-0.007387542006598035	-0.004198485735437914	-0.0003902171326257438
-0.0003015922288004545	-0.01005211093761353	-0.006511185238363318	-0.003061334159823985
-0.003184997996668201	-0.00896495405600993	-0.00358993644115748	-0.002944831984117813
-0.0102740494024946	-0.008699191923275696	-0.00296712355559185	-0.006482981188662458
-0.002909588628385952	-0.004320136459954878	0.001066671399839975	-0.0009336995307568023
0.001140791696606062	-0.002839649119415579	-0.002819133289410946	0.0003722892265252081
0.005866906410666745	0.000667039607966332	-0.0008739490275642865	0.002032741374345588
0.005427648567903385	0.000408595396337316	-0.000826016642120041	-0.0002081483824941272
0.007240506346284347	0.005848020078325876	-0.0008422401038312968	0.001136833753445956
0.002351316470576252	0.004414162266137839	-0.001441650801389239	-0.0002459274481578566
0.0003598925565672386	0.004939224677931476	-0.001654045746277371	-0.000689580424958682
-0.002045116554872292	0.006368327264596155	-0.001205396394051196	-0.0008595589262634792
-0.0001751062445294844	0.004268083546943749	-0.002153695776957169	-0.0002977545056696511
-0.004191498190361901	0.002958787488514267	3.515338100860255e-05	-0.001682455357770208
-0.009873888577588984	-0.003345925981724118	-0.0002520459833965863	-0.000761721216266746
-0.004991128839914502	-0.004709472547296771	0.002245036445736033	0.001183400973322533
-0.01702145538899699	-0.008229455374707383	0.003267567719192985	0.001224492200055351
-0.01432631893499366	-0.01158185443708513	0.002469986150742678	-0.001772469436338395
-0.01135805380282246	-0.008397853233344575	-0.00165454038031362	0.001006331008275383
-0.00635205493737558	-0.003549658642647603	-0.00477390776554355	0.001223550950109734
0.0075572826035945	0.01213191493443861	0.001448489814440262	0.004865480172404751
0.009758699881090207	0.01505240984920781	-0.004151194241394401	0.001500344733848514
0.00803294205419789	0.01879400532089658	-0.004259457804312957	-0.004585685698804682
0.007343693091011183	0.02539555101261103	0.001207196172141263	-0.00138416148338308
0.007042269552177155	0.02829498933349728	0.001265758306260932	-0.001418816640345974
0.002602010904184742	0.02820558073445003	-0.00342273953436887	-0.0006811324051955329
0.001472142213651072	0.01893450254988946	0.0004275929279351301	-0.0002301375728174508
0.005541425775584296	0.01406034355182832	-0.001957589442760818	-0.001284468984519057
0.003931077350909848	0.01091701597052093	0.004444982953770727	0.003088610735253451
0.006360121502623481	0.00671792930153158	0.004153897533800155	0.00441528329864764
-0.001347234479712595	0.001177211079318188	0.003693919192125125	0.002045306576920894
-0.001826163930731286	-0.002438898283961031	0.002118892089812182	0.002533563331197796
-0.00433264450588011	-0.01009648220063583	-0.0007060792070013379	0.004913537614620352
0.002116724628777767	-0.01077274380423168	0.001675073938971067	0.005844879588925232
-0.001062332258582531	-0.01168955940936469	0.00467645123796034	-0.0007874489743986041
-0.007339399873125987	-0.0110966429477593	0.002077939546426684	-0.002507028703465692
-0.004753570425886826	0.00297487642489371	0.003745352540996743	0.0009344755423297542
-0.009264002359849621	0.004837404008989697	0.001718829800011778	-0.001615316319618898
-0.005370943276131182	0.005306979029995179	0.004612086870634857	0.003426849698351938
0.001893949518196102	-0.0003166852730817849	-0.003891756472585917	-0.003682398109263522
0.0003126683418007669	0.003719244457561091	-0.00126902362526888	0.0009342521523182663
0.002337112848340135	0.004039556316666247	-0.002244133445110792	-9.233499142955414e-05
0.000315523825801958	-0.001467537057859856	-0.001751881508631649	0.004680869206528688
0.002883416948654704	-0.001949966696332564	-0.003649893043004028	0.00361352171805122
0.008796552934359112	-0.002272876213395431	-0.0007081282877325891	-0.002055685689115953
0.008436130324010964	0.0004982704237401674	-0.0001149128585980083	0.002764765568761123
0.01289678598768541	0.01166188905082942	-0.001253828805367152	-0.00036056754716897
0.01213543943164551	0.009505064498319806	0.001832156892735531	0.001605156625678293
0.007033484469783315	0.004204737226174642	0.004691159821596202	-0.001964791384060929
0.008319163823994981	0.005368082969720738	0.003345060738736549	0.003421217828070085
0.003565231212828761	0.003307281719203593	0.002391736781502121	-0.0008012733543477508
-0.001172361399372489	-0.004663421061882755	0.004718857953307154	-0.003235717526297359
-0.003929964810392515	-0.004650509710979877	-0.0001167848433784192	-0.004153817691044279
-0.006254468520743479	-0.01515022865185479	-0.001387333975951166	-0.001687409689786819
-0.0005664637599625563	-0.01278320534728125	-0.0007003730285767471	-0.005694160254236119
-0.01245863355782559	-0.02213220163336808	-0.003129535144322402	-0.004407487232872956
-0.0155926277403782	-0.02405757525269865	-0.00162251671756818	-0.005146905169244403
-0.01889424489572883	-0.02366415360657286	-0.00562164875050042	-0.004391069179916331
-0.01601363911474923	-0.02015623425353172	-0.00544113193683473	-0.005957251071323921
-0.007109234557058516	-0.01317776546009691	0.0007897101450367338	-0.001133304575596774
-0.001744100558239292	-0.008718252810237729	-0.002296474890940591	0.0006881620886669658
0.0009972226216232738	-0.0001237721674715564	-0.002897941935847723	-0.001257979753492458
0.003434349560629775	0.003027769487144362	-0.00590704419531092	0.0009761731286474684
-0.002242656976897402	0.008649040394938516	-0.001338722350424281	0.001579979117427051
0.0004094725005062112	0.01085885691220172	0.002735251015714023	0.001227748518162868
0.02023087770119542	0.008361526356857264	0.002307275043991601	0.002949409099938843
0.01423748658794563	-0.001670552826912886	0.0003300026623644209	0.004203014421432396
-0.0001848337758836464	-0.007996336691909873	0.005594651769065455	0.002070645422761894
-0.004493432307879344	-0.01445391214370173	0.003461441059567333	-0.0001695982440923106
-0.01305722573493338	-0.006349182447717302	0.006673130704734505	0.0008891500194615581
-0.01483816041195595	-0.00307008736105999	0.006707974185818538	0.0042139388101079
-0.008675333954362251	-0.002895145659023675	0.002062379612753173	0.001471958387378947
-0.00441993764127991	0.002045202977340534	0.001110192840635209	-0.001376750896065939
-0.005969087915976741	0.003957934205164637	0.0009713942290252896	-0.002889152425922369
-0.004837203880259349	0.007439172456027222	0.001472201181350726	-0.0009277064596832311
-0.004975183302077152	0.01418351757243098	-0.002905569061153585	-0.001745024071090672
0.001021105160539437	0.01823454054137198	-0.001413724092749852	0.000341613691363269
-0.001149684616910478	0.01512261962323342	-0.002343574455408047	-0.0003902194453140692
0.007914683557358769	0.01346146872600147	-0.005079447413813084	-0.003043024417441469
0.007066120837854244	0.008551699308658308	-0.003486173787747612	-0.007442318620817871
0.006894998717827161	0.005096578233314631	-0.001703362250695203	-0.00283041947748415
0.005968427801974372	0.004610083621710811	-0.004495402163582655	-0.003672136005335297
0.01218071284424475	0.00496702783792911	-0.001653979758732028	-0.003791236607122508
0.0150750528787595	0.005744378133271619	0.0005361303217009067	0.001458073804272258
0.01483385877306368	0.002261017743836537	-0.0007995617268761991	0.0005410475292390316
0.008636601490736088	0.002029467863715191	-0.002812768856751639	0.006305425832086939
0.007056831209183742	0.0008503783029191838	0.0004840164224423757	0.004085155663692841
0.001937262181187627	-0.00320488108050782	-0.001048092067836133	0.000852786492010582
-0.001689894751140753	-0.006304333115265232	-0.001139927709726093	-0.002189534833776538
-0.0011608751098017	-0.01096148162465631	-0.001887126555335594	-0.001735946904504662
0.001806099090521359	-0.01030484013747781	0.005510600859210981	2.302987600267609e-05
-0.002277750253552609	-0.00589667493620271	0.003356597582262344	-0.0023080060843465
-0.01438738339246122	-0.004562226708713585	0.006905175854614032	0.00182022870028982
-0.01368760612688982	-0.004276406809952039	0.002309139209446193	0.002070599530798948
-0.0009744476515255189	0.006293165140418386	0.001291167077858092	0.002336573393916064
0.005789627571055772	0.01288249652070655	0.003289713500090264	0.003998296634349553
0.002014885650033285	0.01410919948148891	0.003498086251747357	0.003239746697227572
0.003636608944263291	0.002991012270348198	0.005556057110019413	0.003763034932438795
0.001542068856481045	-0.004458215802994599	0.001674786206056167	0.004161755350927539
-0.001276316581966272	-0.01439030209395861	0.0007655047193461568	0.001708051000944083
-0.01106761345208343	-0.01487604525934342	-0.00213827220616765	0.0006668810035397039
-0.007427712152293931	-0.01504529373825796	0.0009208146852000297	0.00226247518158672
-0.003056271368556178	-0.01397901933318872	0.002648702689657416	-0.001169200625774779
-0.00479906805956408	-0.01067379926859122	-0.002788993372557924	0.0009566065095774091
0.004986012122096802	-0.002450481713184767	-0.007796481044189773	-0.001202519873209932
0.008120939012443894	-0.003312787487464001	-0.002346631533789689	-0.000334963183562553
0.00770491583911972	-0.001168199494892578	-0.0005953627882853915	0.005943146864194654
0.007812441774936655	-0.00456419955153651	0.002461007091763027	0.006521098916729732
0.002564605599634692	-0.0009286991565599216	0.001551003234882621	0.004082592563718231
0.004873242655627885	-0.001582586035332708	0.004993252262317758	0.005498643412745768
0.005460346353813781	0.004798980938637134	0.00655672614897172	0.002340341766674839
0.002933075458926551	0.002606943045624098	0.0002434549271115305	0.001741444115780598
0.0002762974964350846	0.006200597450675955	-0.003465991783078827	0.001514476559000725
-0.008811113690732224	0.006334963298832709	-0.003626015182231105	-0.002526353621234967
-0.004100710335595235	0.004489014498566347	-0.004951653175551403	-0.003912376772115108
-0.005896835798581983	0.007941299499021634	-0.0004302755530514596	0.0002079042065433037
0.0006695530460514888	0.01365591018782421	-0.0002819883983678894	-0.003172572963388399
0.006011743377809724	0.007435676103236592	0.0001304311460359743	-0.001476461603848637
0.004422573527020805	0.01495231740513093	0.002449771367633043	-0.001764950381974099
0.006338390440055668	0.01998022954602903	0.001406602474787924	-0.006535302075444803
0.007191249249052541	0.01727790454734467	-0.003274073911548032	-0.001863050559604673
0.0009683679607161381	0.01261505937854107	-0.004533346900427475	-0.001364268218412295
0.003620240281273982	0.009822785847106164	0.002237013731193194	-0.0004303935276633541
0.002441836838488187	0.00435864065206861	0.001532130012324798	-0.00582408386016898
0.004105836691866682	0.007575977727727349	-0.00378724338340824	-0.005741354414028295
-0.000451344367794989	0.007997372490960634	-0.001178960636641401	-0.001097889346552086
0.001462508768113448	0.002275031960462245	-0.003053495532150113	0.0003220968728493382
-0.0001681039790681268	-0.001077327367355789	-0.00309679948386147	-0.001736216537852133
-0.003461076547068783	-0.00500797430106068	0.001538020747173015	-0.004739639921289279
-0.006544066470599771	-0.01519097988474122	0.0001824660143775839	-0.00274099705367346
-0.006975825596272004	-0.01730726632483743	-0.001633671974830768	-0.005949231219927859
-0.002690773717132698	-0.0108366928945466	-0.001271048930857309	-0.003159346717531118
-0.003694997688546853	-0.003838009859888647	-0.001158468056779454	-0.002582033472134508
-0.001977243891872196	-0.003779025778547007	-0.0008474206281016204	-0.0005996926803784119
-0.003017327126324559	-0.003893613456253253	-0.0007868684245260068	-0.00308095996799864
-0.009189413098400306	-0.007170435346066422	0.002094612843914014	0.001167718857288235
-0.0120456906801028	-0.009199838760507449	-0.0003807350267713194	0.001387063044714391
-0.01088005065665082	-0.01010612435067122	-0.004870497593323018	0.004722938565557641
-0.004459487158251569	-0.005415034263307705	-0.001496376298748764	-0.00175730582434949
-0.006199149642678841	-0.003930462335897327	-0.0005685305561218273	0.0007090613057739567
-0.000173264924092394	-0.0005172347639513978	-0.002265478627332451	0.002903424698929228
0.002179979001065701	0.0040556456232144	-0.003054424799710606	0.001087298434639878
-0.00182881214122427	0.005888245153781659	0.000322305129371933	0.003002770887291569
-0.005306468026098674	0.00342348952449663	-0.005335157609078787	-0.00153645439762506
-0.003379327173624718	-0.00229774689358601	-0.005463941808834079	-0.001923040740276619
-0.008009375953649964	-0.003976637727014599	-0.00379792168544887	-0.003453886115795677
-0.005316478179467722	-0.003367380245197159	-6.627089797912739e-05	0.0004705363116352473
8.728614652527694e-05	-0.006828190529090905	-0.0005558156143503966	0.0004534013506309159
0.00546066653190073	-0.005809138735465794	0.0007683616922894315	0.001506622752492948
0.005804870123840154	-0.005577739848672401	-0.00162873213621052	-0.001710680914098893
0.005484560592466067	-0.001677913539398965	-0.001668447789198624	-0.004925445149170253
0.007313319248856133	-0.002275303079730779	0.001052485595126571	-0.0012989651275599
0.01665705744767626	0.0005267292956293582	-0.002378476694545888	-0.0002071717582722771
0.01513827614437226	0.007395758154224621	0.004145054903206428	-0.000808758753896736
0.01407146444720604	0.002145742016465318	-0.002003048010607391	0.005564305240647296
0.006960889331283855	0.001117179360063688	0.0005818582533826096	-0.001986500508404166
0.0008968250499966845	0.007029007616983751	0.004594122432437426	0.000518525240876693
-0.003140283638991169	0.001053066359932021	0.003718904591431265	0.002190651776944802
-0.007760819230533844	-0.005664834735274561	0.00248975526186124	-3.665577509881843e-05
-0.01464977120608317	-0.00582451920438742	0.002568405473994046	0.00516299352969647
-0.008528342794019995	-0.004731621988185985	0.002383174984476835	0.002416741199501932
-0.003435301264147285	0.002328882154937946	-0.0004887949276671959	4.43439306940783e-05
-0.001922509321606692	-0.005719057628029049	-0.002064536904188422	0.001282362081848269
-0.004424677193762814	-0.01730242429800983	0.004392392154704962	0.003743564961803698
-0.01110039708121739	-0.02467847969397038	0.008363506043577771	-0.0008826502704721282
-0.01400651456784883	-0.02501926809627991	0.00923424099407592	0.0002787867439928599
-0.009285722140640551	-0.02463821483979396	0.007441607250824393	0.002328580069458178
-0.01098912956870004	-0.02082743716007071	0.002418217844365163	0.004713946659036315
-0.005617299412535384	-0.01346582321699762	0.004036822311534028	0.005303356747375989
0.003092659112607071	0.0008568435323297989	0.002959863763276506	0.00257840761821743
0.006144909711453167	0.007188305030185859	0.00105759051841084	0.0006218362598513809
0.007901939100634473	0.0144435493150555	-4.945316457154165e-05	0.002986571311857185
0.006439146379163537	0.01392393130441706	0.0010154674843936	0.004131534677920498
0.001751767656982202	0.01235616712163922	-0.0008366211133848205	0.001331811034248629
0.008163362491222462	0.01296347342636828	0.0003855530540996449	0.0007314323012486549
-0.001603840551352438	0.02088473780025583	0.001076315166556884	0.001637795876584631
0.00124691230153846	0.02164478396434721	0.006606033130454061	-0.001007681242913452
-0.001234025315322944	0.02047752278244232	-0.0006310648422327731	0.0008609117579297231
-0.002930553184546989	0.01717991662104603	-0.003553760373494812	-0.003569168426254868
0.0003202511183900116	0.01286296609078684	-0.002385541326582337	-0.003215498155932083
0.0008504410285722496	0.004318491998703143	-0.004370213488225176	-0.003666411286674297
0.002090320553132065	0.001062081572718155	-0.002057922666461205	-0.0002788748915312856
0.003029548063840404	0.001032064444765159	-0.005166781047829077	-0.0008818346626331383
0.005438527231296214	-0.008921002469207183	0.0006591905641932786	0.0004715158196215769
0.004058706024903049	-0.006119948368212075	0.002083199570140615	0.002931223648067816
0.002900128583169623	-0.009517533866636039	0.0008340601806203835	0.0005708160137288897
0.001131741720022071	-0.005436371639269502	-0.003117288011679668	0.002430588302819444
0.01013407525000359	-0.0006741768461914774	-0.0009305140472835739	0.001139270434875065
0.002457273686308447	0.00270380592409609	-0.00435570524613178	0.002232222970644647
-0.006704245670131139	0.003460776511920829	0.001820876352829222	-0.0008032205552089544
-0.001427423933406947	0.01167317539522732	0.0009504769116335514	0.00320743639185008
0.002864792231838643	0.01498027287008542	0.00108579245454437	-0.001023131312614428
0.005726810467716072	0.01480233179388875	0.001276052908849285	-0.001321810584776815
0.003960228224202195	0.01028420778882327	-0.004682514307546931	0.0009188938659926173
0.003850134464517336	0.01599526143517334	-0.003630433352465841	-0.002412609711907885
0.008978505703259488	0.009536719524479768	-0.003335163136676418	-0.003685617108898477
0.005791963154077056	0.01181786358709615	-0.003192206144326012	-0.004221258002942648
0.003946502461879651	0.002232700115007424	-0.0001500608617306263	-0.002151849905152572
0.005707121584766198	0.008166740946797523	0.0004324118248306779	-0.003481621785090121
0.008795125903138142	0.009556127338531877	-0.001184388630105002	-0.0035871971261816
0.003675003916498392	0.005249899909014421	0.001602041226956163	-0.002290088905896507
0.001844445650803688	0.007902213445717385	0.0005198052646847079	0.0006742721012283958
0.0002962802613276328	0.001029422212859438	0.0004184399840404473	-0.004454522812032386
0.000360782466889687	0.0005758135307945509	-0.002206522576404473	-0.001867668605410079
-0.000755194985487211	-0.002897600622227234	-0.00178161076094006	-0.002336281525775731
-0.0004735033677510695	-0.009187843737561534	0.005108711419623511	3.355049223034796e-05
-0.000480094128267987	-0.007836110995862877	0.001122022205814517	-0.002945598242526878
0.0013465887323114	-0.003606994431883843	0.0009564430632882037	0.0001433328591231382
0.001662322825788552	-0.006477556860022856	-0.003535199375408373	0.002744311131205875
0.002792358722446698	-0.0004956687685540599	-0.001886146932556064	-0.001992690868611036
0.00417385271121181	-0.003555807030856699	-0.002911401971412173	0.0002920438589389522
0.002761180818296904	-0.004148702665002066	-0.002092378472802728	0.002424690810762135
0.008059347076619958	-0.006062252105977692	-0.007552863923446246	0.0001469886112938007
0.003148183170447575	-0.0005826195318228563	-0.001674128189337156	-0.001061288687249992
-0.003378238979016662	0.000595105824685274	0.002284441505997628	0.003586364595948185
-0.005470092350748804	-0.0006546140985734599	-0.0005323381873535172	0.003195645662325803
-0.006250424140877634	-0.004442331180448216	-0.005043593285155118	-0.001195148844492103
-0.01039537008037775	-0.006497511190231811	-4.961364714673487e-05	-0.0008954330910910856
-0.01114691185146597	-0.007218134077973938	0.002263735298735329	-0.00211260258113579
-0.008536434090776347	-0.003820339320286197	0.001560024606744677	-0.001416243141681999
-0.009420155607804815	-0.004549585531255771	0.004188416531686675	-0.001256567117659492
-0.01259768063119522	-0.006326907597499094	0.004912034617709519	-0.0004359053628041289
-0.01257025182161859	-0.003356885873899681	0.002383861731352827	-0.001473269180980386
-0.0183133159881483	-0.004557092823327785	0.001406998126809755	0.002666390967686704
-0.01089163543953648	-0.006728298163986626	-0.00252992111311339	0.000338408130618586
0.0007591907680208978	0.0007393053333222678	-0.002832692262192689	0.0008911556729540305
0.007946498780395781	-0.00519649125235858	-0.0004789913633787281	-0.0002297156703983926
0.0145208362518386	-0.01313672526464746	0.004770109560887915	-0.0008052237443696512
0.01141690529592941	-0.01382706868035894	0.004908620096084696	-0.003675220246982915
0.01275658810190037	-0.004763969951288739	0.002859888507614565	-4.897379084719815e-05
0.01715693629180787	-0.005124301990984195	0.0003341620113367645	-0.001546368128632269
0.003961366988864672	-0.002199575703062663	0.004205757032492753	0.002240609787351877
-0.004690969511288141	-0.009378405887001132	0.005963768838064365	0.002221264233175108
-0.008088731649145031	-0.01023644066393756	-0.0007485404414257146	0.002781813679380738
-0.005519150357154017	-0.005260780761296604	-0.004292143916322972	0.003400192709043036
-0.004705882890992912	-0.006560536027774034	-7.181122277833272e-05	-0.0006657321029103285
-0.007392426178557571	-0.005243923580223906	0.004843253888537714	0.003249666922398126
-0.00736722483062364	-0.002369607686665194	-0.001205891458436133	0.0002895472599072988
-0.005889421175213369	-0.002639901008915372	-0.002669904323264345	0.001286473007896188
-0.005775467931376128	-0.005772876636704705	-0.0006237803021543263	-0.001087873384753968
-0.001570583616442538	-0.008069947685568735	0.002702498142490036	0.0005230351660733635
-0.002505715840529049	-0.008495412496113929	0.001239838564192498	0.0004237352592675125
-0.005375069151543127	-0.004207400349784499	0.002692935612400899	-0.0009647123969122401
-0.0008873184871011855	-0.002487869992206511	0.00272895194782461	0.002331626395571827
-0.0002928570203787142	-0.002702862632054421	-0.002071353367584711	0.002115623024504495
0.003584205064102515	0.002545227765764097	-0.006054926920065157	0.004682098247416873
0.007846108380334414	0.01328266422609807	-0.000386616358274458	0.006646007094787958
-7.165061917362114e-05	0.01319782899589751	-0.001574797983316342	0.00142616750084907
0.0003556707519523861	0.009444209469840039	-0.002292743635239503	-0.0002491276878523874
0.002319081148177911	0.008283637364934702	-0.004530443460953726	-0.001058929369691738
0.00192694955749459	0.003786531317640759	-0.004378738330330258	0.001499239852854966
0.0001912165762758783	0.0005740006564496333	-0.002400964840070161	-0.003814290022928572
0.002722896597745984	0.001184188260867555	-0.005190804161107194	0.0006052112257117047
-0.001479383884563996	-0.001368470817657593	-0.003903723832396024	0.001507834821962683
0.001210139090771167	0.001229736968446188	0.0001891469341254696	-0.001254751889675147
0.007206425055095842	-0.000602069328252962	0.00638903260717425	0.001611154465635333
0.006569613973029186	0.001662914734410103	0.002223178815102183	0.004124076063420942
0.005630585415172789	0.001766398327312344	-0.002752421379002666	-0.0003172926521349504
0.001789305975845061	0.01323496240493192	0.002958391091852885	2.248902641037564e-05
0.002128920047469238	0.01238751204297131	0.00175285466341046	-0.001629042311523404
-0.002457268607707224	0.008435500701430251	-0.001506379090090444	-0.002642187618345367
-0.001067724532225944	0.01352406394680016	0.0002788660104268642	0.0009785459109785074
-0.004237505796867449	0.0108769979996889	0.001938945787727518	-0.002240384694753808
-0.001789171224930731	0.01097476005058446	0.002706639553326372	0.0006505418382345623
0.002411300244393075	0.01390849291003241	0.001602815786282598	-0.002093007900568438
0.005872587872812231	0.01176885695676951	-0.004740118007915015	-0.002482887726494623
0.003234842232333386	0.0164633039573526	-0.003909367819186343	4.863772347176909e-05
0.007192914331454267	0.01267987230271723	0.001469457924650658	-0.0001952175399635447
0.002743101546720739	0.001206199314961662	0.004020791087655301	0.001898087618919393
-0.004309161387681073	-0.002913101899970773	0.002008307544347041	-0.005084557609522988
-0.003891617994345349	-0.004851004021120236	0.006160077881251524	-0.004172152783859452
0.0007031398405558435	-0.005101138684418911	0.003023921348001577	-0.002512216230161668
0.004420550503501991	-0.002700988338221651	0.0002071051750300438	-0.003338096096581274
0.001233252017302017	-0.007591429273996845	-0.0004802759963077974	-0.003952179153929741
-0.0022306573439907	-0.005405480465317313	0.001866394901248832	-0.0009519552842191741
-0.0002150931693406346	-0.008322347139446419	-0.000481922690480831	-0.002254573898957875
-0.002920686122544482	-0.01078624608426649	0.0005468209938525769	-0.001075634710852731
-0.002375198544165831	-0.009766986395312588	0.001402446792564248	0.0007921732455997575
-0.002452857088490991	-0.008004889098502995	-0.00120095091931498	-0.001116727983791188
-0.01011154431642598	-0.008287738485540937	0.0001983748965794859	-4.803931940846858e-05
-0.009761327141064129	-0.01063679589633135	-0.004007297238795808	0.0009775830978201987
-0.005675663729458874	-0.01243286576912889	0.002053486987282564	0.001923126936518534
-0.004012348494468056	-0.01018123483763853	-0.003586483723213258	-0.0008924573186312224
-0.001387589732268473	-0.009338260799013374	-0.0004929577029010598	-0.0007958253238918462
0.006770727181154105	-0.004368322105028789	-0.001501980516651395	0.001487930346407011
0.003541993380956952	-0.0006600302932510656	-0.001187375150685713	0.007008044114377877
0.006103980507000044	0.0005906040704885987	0.001887308671579923	0.0002230188199387595
0.001647572024813043	0.006677898348144072	-0.001042603866551333	-0.001870803803177313
0.003738562642100611	0.004672716090094458	-0.0008374702686163267	-0.003403751393429588
0.003734646879420739	-0.0003838528046019199	0.003176607877323657	-0.0007862267331155542
0.003581784864138264	0.00128918821537556	0.00303517153846647	-0.0001763938392358412
-0.000753527383001834	0.007171950460453582	-0.001264934640597316	-0.001251578012624256
0.006439263233437673	0.002899924417799212	-0.005262893422863016	0.0003140961470826044
0.004787253468978954	0.001825239628746898	-6.080876353454085e-05	0.004673412872511869
0.004082538336469016	0.007133837642318631	0.003257888612628062	0.007438417014007731
0.0006103292104186122	0.005159097230121628	0.004700878769871102	0.002484763949748111
0.0009584178887493107	-0.001264958105343432	0.002939050493740544	0.004459825987251659
0.001819266625999861	-0.003503284148627933	0.0004376412484999967	-0.002732030762309046
-0.005313593038163964	-0.004349498105217949	-0.001047950377645972	-0.002382885368786317
-0.01050931717929053	-0.00624131184564326	-0.001592100370736942	-0.005112434587909154
-0.0185810772078958	-0.005508221589924835	0.001089759118550081	-0.004540203206027493
-0.01589847430021946	0.001550496125825022	-0.00172516285384744	-0.004103053521590671
-0.01631503202294537	-0.0004274330957482383	-0.002289897452057465	-0.002365349153186387
-0.0160300861685936	-0.00138209408938272	-0.002844654086556182	0.0009023600596026643
-0.0115308810944312	-8.281293888285844e-05	-0.005136482607416957	-0.001707425452471673
-0.005674401881232819	5.469226571344095e-06	-0.001446260995081212	0.0001929081728106765
0.004476549197156102	0.003602458771422184	-0.0005175733217267827	-0.001315442921393259
0.004458979557715985	0.003374536139111194	-0.0002131677088895866	0.005406232931828021
0.002412202577523462	0.009120637563575378	-0.001563724421833763	0.0009653616757290047
0.001742913019483633	0.002078442393280517	-0.002834523471056024	0.001609959181040976
0.003894949020570258	-0.004413549412293744	0.0005497821431108565	0.0008979084799579186
0.004925141016918454	-0.004697936452440548	-0.004545335325523491	0.00106891550379489
0.003776901960819811	-0.01113823269335986	-0.0009628945418091431	-0.001188594057786961
0.003693814542103678	-0.007189987162485453	0.0003056995422573856	0.003430924773049474
0.004695505106227809	0.0009859308858373443	0.004053872936835613	0.003822948437790026
0.004688474281874122	0.004405243629788342	0.00318997833555176	0.005491356074987858
0.007515822640910543	0.008740633924556408	-0.002974656218876491	-0.001098740174727453
0.005058661441351819	0.01384625443488884	-0.0001607253109757926	-0.0004740091535735982
0.006304558804271648	0.009059587800074745	-0.004282031137106868	-0.0002875289956364351
0.009471539310659373	0.005600573207235015	0.003502617310646441	-0.0008926139016123859
0.01223188679341989	0.002182926065580902	0.0001950054454346802	-0.0008479612398036777
0.01079468581195733	0.006723931189616276	-0.0007059799129276124	-0.0002478431102889627
0.01217387799067423	0.01127922281243591	-0.0006606793240232257	0.0005932828664699311
0.01222404851802759	0.01407727656076686	-0.004751226551056357	-0.001558144664164187
0.009142736332224665	0.01655305899401818	-0.002933182587625052	0.002515711612628249
0.004518445386114095	0.008518920456597792	-0.006856216218425241	-0.003138736251139556
0.008168898802340152	0.01093749068271197	-0.0008072861637730864	0.0007184554080882252
0.007535809851537	0.006450206444693058	-7.661465725678391e-05	0.004470842989603954
0.007682596358876751	-0.005563771783374648	-0.0005072346637351579	0.001346793678725843
0.003367368896693815	-0.001508546336371763	0.001300595044997803	0.003150804341829071
-0.001942072434190922	-0.009930966998507647	-0.0004906924100465366	0.0006823052845815129
-0.006880494269217009	-0.01782898704208126	0.0006388305100598154	-0.001584994045633025
-0.009102825940308262	-0.01338422193883537	0.006227594763603782	-0.0002288698033950251
-0.01027396811316395	-0.01413812872765118	-0.0002526995976619879	-0.001850169042149422
-0.0040240966821282	-0.01070635568079665	0.0009801142488903233	-0.002440062308729329
-0.005525955270244873	-0.009967048302979687	0.0009595074630884746	-0.00124511636252128
-0.01473080040744049	-0.007981637222829891	0.002845733405102998	-0.003925263440065425
-0.01489684192614561	0.001310959585048839	0.004936515424168865	-0.0008562045516875331
-0.008340989980163624	-0.001725945993400597	0.005867684385343045	-5.721565475203444e-05
-0.0004902742866915372	-0.001482202546096814	0.003073301932699005	-0.001899357301264848
0.001974982378218418	-0.0002835094461073708	-0.002411927297671186	0.003416370075867307
0.002709434011770618	0.00271580004610204	-0.005412549094105499	0.002836054980467453
-0.001482420604287634	0.004945394916624865	-0.005537774810431056	0.0002213064924775543
0.000155066532765035	0.005554419936782139	0.001582224016273997	0.0002847286422442202
-0.004754251060159759	0.002205408230625405	-0.001005092350053695	0.0006209103633852664
-0.003271626319723927	0.005573831011676699	-0.001391276886211918	-0.0002790572230785887
-0.001886541624570606	-0.0009884362117862364	-1.809511127998971e-05	0.0003347320247342482
-0.0035048760116303	0.0003580970674759747	0.00399427806862984	0.001882002242190473
-0.003389634359876322	-0.005266635233252377	0.001782361052068204	-0.001585144643143521
-0.002539795101246569	-0.007864517361941754	0.003393361239238929	-0.003645298268950832
-0.003374985992975375	-0.01139998645525476	0.002269089522383804	-0.003504899402069454
0.001923222403195605	-0.00598252034457004	-0.0006533405558133646	-0.003165404729983563
0.0004695995645798974	-0.004964533072184424	0.005598395343497058	-0.0006013142590752584
0.003507407294806692	0.001256155236850377	0.002999210913120091	-0.0006482068299698736
0.003973731991637691	-0.001260650543371768	-0.002280228886713029	0.001708497486463549
-0.002068988951367774	-0.0001182568563460703	0.001051277224343861	-0.001526017295499179
-0.003355396193599526	-0.0001392698494171416	0.001263123537197881	-0.0008552980556141278
4.228901680710333e-05	0.005840425656130117	0.0002474551364153671	-0.001723082534690046
0.005927608994782959	-0.01200224393404246	-0.00108183512752046	0.0005278538409706143
0.003224749661481344	-0.01318563748729402	0.001574129370488366	0.003754295931857263
-0.001400817096562903	-0.004594096607517814	0.003466192166651573	-0.0006959572199674191
0.001956349696012888	0.005801315213960762	0.004979172853606717	-5.575813930301157e-05
0.005798921592116989	0.00734739400620027	-0.001007713302233927	0.0001378820722235951
0.0008177785951892353	0.003426406044140189	-0.002541924899341962	-0.00252635721456363
-0.0009887840573591668	0.009190569414597269	0.0001084997499394684	0.003623461742838425
0.00293541590476292	0.01129789723644188	0.002091520366028754	0.002698139028029091
0.007994176785605232	0.01294097770226699	0.003826342638230383	-0.0002645092681682195
0.003675319170533136	0.01005349923219729	0.003582856602435387	-0.002046149259371953
0.002673931395205144	0.008209669005587929	0.01003078147675822	-0.0008029958610171942
0.0006967930241905633	0.008540264746863268	0.002456429892820542	-0.002515265777562638
-0.009214569569815624	0.001247202859965181	0.006886672049546878	0.0009917035601684453
-0.008071671967783783	-0.003703075252037307	0.005396895130942081	0.001386466716282112
-0.007681375718435104	-0.005819140831777062	0.0007246870775309026	-0.001808985300378529
-0.002852819718074987	-0.005011254188798104	0.0005833615682652269	-0.0005709166776940637
-0.004969133200649689	-0.01240625318179385	-0.003876448891722587	-0.001804783919019475
-0.004582571084287429	-0.009993513843547991	-0.005095730518711817	8.785960499645982e-05
-0.007887292006675496	-0.01391545432906372	-0.004929059365986582	-0.001269910831223298
-0.003482457453819656	-0.01078382955149064	-0.001177749977007428	0.0008361591019267087
0.001280037073979454	-0.004480489813851886	-0.00102383580863064	0.001834517544959746
0.0006940677133226294	0.005380845196493788	-0.003430678637549288	0.0009901268078862636
-0.003826673774003099	0.003050651218661154	-0.003714470082631537	0.001036936755511149
-0.0051717991218058	-0.002540358876800967	0.0001824981731368765	0.0002033220265444476
-0.0006937783104922796	-0.0005435987676762793	-0.005639459557185283	0.00362662480009355
0.002282331605860106	0.003371899655192508	-0.005034860887635419	-0.001642355141438006
0.005307025569237397	0.003358630924342702	-0.005983362107095535	-0.0005858136198265612
0.005636508847172822	0.01054163630310535	-0.0003153913549424747	-0.003721931590000014
0.007162685553592222	0.009532557187810648	-0.0002336921226476962	0.004758183446503581
0.006101452999830234	0.007996462076100391	-0.001818407699622151	0.003440839968089838
0.004043713933884297	0.002140257189320404	-0.002938028141101982	0.001983262304913032
0.002933244940462675	0.003427446357523795	-0.00478953832831134	-0.001031935067915774
0.0071677970283913	0.001510076234658238	-0.00480402032343786	0.002660489318054494
0.004212704688396698	-0.002692772430203607	-0.0005267992453285608	5.609553637473278e-05
-0.0007925859824681467	0.002680995197568624	-0.002623888772275311	0.001024086343878149
0.0009701479127565832	-0.00941934818913775	-0.003661900830949961	0.001775763726219134
-0.004745579038328593	-0.007711278032703266	-0.003835269806088695	-0.002277060044695562
0.001099816375571654	-0.002507534322891474	0.0003577790101471262	0.002421078585405462
-0.001269116853127436	0.0005867553020660906	0.00325377708191458	-0.0007376975095151521
8.806063225140948e-05	0.0005222693712628726	0.0005666994770473867	0.001696618817948773
-0.002176926907910859	0.001441164152721084	0.002740983333547134	-0.003458545401736046
0.0008454968612418134	-0.001489929282444154	0.001047411475440292	-0.005373526603443071
-0.0003748947595033472	-0.0006148682142430984	-0.0003525938960339618	-0.003755069355292631
-0.0006417720674567071	-0.006156738621015631	-0.0001255079324692659	-0.00695376279423027
0.0001266060366679978	-0.006681976204011329	-0.002281799763990151	-0.001395933231732888
-0.0006119712139963294	-0.005166128978678221	-0.003803509532270981	-0.0002303510310256267
-0.002396887266030607	-0.003097810184131603	-0.002531399526793473	-4.491793410708078e-05
-0.003327237300198567	-0.004711408908802968	-0.004833039082838769	0.0001485164808969594
-0.00796817863127235	-0.003040317012720303	-0.006591201240751386	-3.765469899167501e-05
-0.0003358493834300669	0.002535879913750075	0.001675108491780674	0.002565671897609952
0.001933949568430792	0.01536287843029836	0.002940327524731395	0.002556768649797766
0.007230982658673332	0.01099196692973954	0.002870761515914497	0.004093392142697412
0.002839806089037812	0.008088617669604631	0.004629032128552344	0.004862918103663424
0.005857680686541183	0.006738008408809338	0.004781866936045381	-0.002934578865471276
0.004167636671210053	0.009134133600009061	-0.0004477306852510151	0.001861607764856521
0.00827885442021559	0.008747841834167415	0.002364513995355578	-0.0002092559576021704
0.0041096228761596	0.01179562863700909	-0.001151018063683733	-0.002419947935679052
-0.006039291388080321	0.01059052525866887	0.001131483013284606	0.003548678774389374
-0.005706879173839856	0.009615810865537215	0.0007650575539719385	0.001278242989021916
-0.005642501504144975	0.001653176717033242	0.002575570177124779	0.003285198683570744
-0.005136429863090436	-0.0004131410640137519	-0.003246090500944753	-0.001559028508958643
0.0002402589542556715	-0.001956504025526857	-0.001859739458248202	-0.003586923484121346
0.003294937670772544	-0.004468560462353544	-0.001838534155580785	-0.002946595687259996
0.004935593870123845	-0.001108778546184587	0.002097359201334255	-0.00231813395973424
0.006834519093149486	-0.00617905231684141	0.003092525983484495	0.00255494672773117
0.005658748136130343	-0.007443441075605635	0.001113065990617649	-0.001448849597337175
0.002909046778388269	2.381077915292935e-05	-0.0008628606446888244	0.001492304226549773
0.003289404032049104	-0.009691450970302069	0.000756818737694999	-0.0001463115938588721
0.0001678699705772526	-0.01013046196293895	0.0009974691113815242	-0.0002329216669094142
0.0008550535414488228	-0.006363453500146397	-0.0003296489204490183	-0.0004596892515260993
6.708637758841968e-05	-0.003927984913312685	0.004001707219462704	-0.0009214600308689102
-0.004857811184958453	-0.00313886994894137	0.005942729717364863	0.00422053213016485
-0.0004275949135746007	0.001204084185943297	-0.001041185379742468	-0.002077441337171879
-0.003548131969280324	-0.0009556461153045395	0.0008546478947411616	0.0009727633197657645
-0.007087589310067171	-0.002237054363455365	-0.001325513913525042	-0.002773748758405658
-0.003441453676808511	-0.0008542264932809222	-0.000202299861709785	0.0006387390895373584
-0.004603117718777253	-0.002209462541003343	0.0003901203923855753	-0.002461504379812673
-0.008735864609885142	-0.003023988897597353	0.004710636682480153	-0.003418569810047244
-0.01208504562404743	-0.003099887307406734	0.001456511927833198	0.000159419358578582
-0.007368138884789975	-8.04002426523875e-05	0.003204445574467456	-0.00043393542507728
-0.009440436689859281	-0.002630354884246855	0.0003269781391148777	-0.0009807060688764606
-0.003447909998579052	-0.01073941501069383	0.00200674431399397	-0.001784385702941038
-4.453869759590785e-05	-0.003835603004771532	0.002418895940517846	0.001976912502896918
0.004052464864728959	0.0003849998966237675	0.001035546369875118	0.0036165788737345
-0.001518284201052212	0.001459328106640396	0.002068699903125925	-0.0001333871355017089
0.00377109879911246	0.003242747531686867	-0.001362695455733245	0.001617580992605567
0.005170476546814213	0.00194459832147902	-0.001227364439500475	0.003722361069884741
0.002911430612574615	-0.001791547435200437	-0.0008973006464365852	0.003476291600702174
-0.001153035976382731	-0.005688841299230137	-0.004620790568641133	0.003835029023623653
0.003380080684646897	-0.002927548307178089	-0.001244251715453239	0.001403198020406475
0.009929815390371187	0.001776790192264176	-0.005033317913620584	0.003389278704751655
0.004038521636420113	0.005261997993962883	0.003157983210684003	0.004072273756795166
0.00386557232140845	0.006562650304029339	0.003242467998408509	0.001122338104940091
0.002446274131567901	0.005711515021246888	-0.0008377319828317968	0.002236856260059142
0.00131784900540853	0.0005126008999926522	-0.0003095920697382193	-0.001399929445466541
-0.0007014231057176782	-0.002006168920571945	0.0007174041025946308	-0.00532714677587247
-0.004189075806820651	-0.005671728878226748	0.0004543812705223387	0.0006182740262661138
-0.0009980327436885554	-0.003365728461020081	0.001833241507502416	-0.001574943893739109
-0.003498343052098412	-0.004611338760390733	0.0006207312557260271	-0.004980705377825865
-0.007608601637243114	-0.009570992218159579	-0.006526587129391949	0.0004437302627696612
-0.01237585884570868	-0.01551168102490539	-0.004643526584147838	0.00311640760169897
-0.006867746672316992	-0.008149051195215088	-0.001279692716831499	0.004497593643962879
0.001038209919739495	0.000252671699447683	0.0005277413572607408	-0.001373684823134065
-0.003934965880322465	-0.003868820547625705	-0.001119696683894435	0.0009849001978629649
-0.005120317266342065	-0.004615041624212972	0.002589465874576588	-0.001691493490765406
-0.0008595671610902983	-0.003511933999004827	0.00675380048953069	-0.003301211840585046
0.005098995632538989	0.002252947039362153	0.00415757206062102	-0.000415093265289094
0.00927971443866262	0.005293820260450693	0.001664717895192162	0.002881992123650312
0.005778135919082188	0.005328715721839919	-0.002480224408213062	-0.001493038930526882
0.01110120813258376	0.0135594234740531	-0.000353293997362683	0.001806659869522909
0.01322240436460725	0.01339396476651671	0.00261287025564395	0.002935750281975298
0.01293867770337517	0.01355560153618	0.001345391573072073	-0.002574425360017657
0.003770872442351956	0.0128380537200035	0.003462226658247364	-0.0009786101578780756
0.00791159562926632	0.01176193233134657	0.0001411212474513456	-0.002666612944513849
0.004809984114938992	0.01523384004804151	-0.003805481740874691	-0.003146511541103025
0.003016723601302701	0.00725268247958757	-0.003118769291508446	-0.004292958593108781
-0.001383727384886043	0.005036793091902648	-0.001687987331708904	0.001131270048378669
-0.001608851495733585	0.004060809640770074	-0.007622934278564393	0.001603274888644787
-0.0001789475367098014	0.0006800833611210356	-0.001090430061896085	0.002121366152212199
-0.008088536177448181	-0.005168950356088907	-0.004097338925366354	-0.002216467928860588
-0.01231861701920459	-0.007400121108879293	-0.005946503795387048	0.002965535350424819
-0.01506847005983202	-0.01214569527447813	-0.006160003967517404	-0.001168200580758233
-0.009903169281595835	-0.01139432108765542	0.002134589008799211	-0.003001356688000543
-0.005003315072381566	-0.004370977591658861	0.001347728253024409	-0.0007464883497249718
-0.006248396585503259	0.0002357625163352461	0.003123639398394003	0.001810919096469731
-0.003892342781256016	0.002254919191506558	-0.001335766070758104	-0.006218499768462815
0.0007038908323904643	0.008532879465539996	0.004358478294843467	-0.002024294445990237
0.005020010531389665	0.004881528701199568	-0.0005110350582529467	-0.004648180836898948
0.002676357404694841	0.002290375735457815	0.001888627125800241	-0.004651763648741029
0.006837181191949912	0.003378959882887255	0.001653445823104797	-0.003390771402190926
0.007575447198994346	-0.001314642073286442	-0.002488919854431608	-0.001277205526233807
0.01409034273965253	0.002187273095424226	-0.00108842619308639	-0.001876199085656689
0.00733653098637002	0.003866628395035021	-0.001257416799173197	-0.000865516988264212
0.005635515397535065	0.0005074206994592893	0.0002765465999211691	0.000960667951142805
0.003511653665046834	-0.002528851408702777	0.0008111747979515525	0.00197388266020247
0.00119046722658741	-0.001023749043928972	-0.001292161654584598	0.003093739674487788
-0.0009624260826492006	0.001492325011371073	-0.002594459222161289	-0.001635957509547064
-0.001595078193869427	0.001021563261533305	-0.0005855389596246129	0.003901357672400145
0.001422533956049048	-0.003906296260287062	-0.0007939296529635752	0.002237272119183196
-0.002169470429471985	-0.005842513503281091	0.0001507283756056312	-0.0006672444521891613
-0.002779776723345046	-0.009727879080259572	0.0008536401900301331	0.0002309527393841469
0.0005154104353258163	-0.009332964911910168	0.001519116658354725	-0.001170071812451297
0.001932589038120934	-0.007423589815312413	0.001441061971837158	0.0002338726292315872
-0.001832314941894151	-0.008751412101922979	0.000979847116599692	-0.0004316445529071768
-0.005487530252949969	-0.008383866329693495	0.003688978744870771	-0.002976792359483124
-0.003486088127404295	0.004161193169294083	0.006874602672593743	0.001283161933327551
-0.002640772681404911	0.008589188880194523	0.003801678679889807	-0.0008411795934977579
-0.001364622772082231	0.01297072543259977	0.0009220653943835114	0.0009199702259124788
0.00408707499922266	0.01139945202353098	0.001143579197823759	0.004384457543271957
0.004835022383128558	0.01378160105565492	-0.003048398641259165	0.002656677075914675
-0.00543904772318694	0.008250062149209333	0.00136296382955561	0.00424876930660532
0.0009219520584980384	0.01021885002962955	0.007081726835060405	0.003928374507215592
-0.0006659218049058309	0.01016602826568587	0.008530424693698704	0.003421902909977217
-0.002091380226018332	0.005863144001836082	0.003923757783961952	0.001170537358933098
0.006093589125398663	0.0008836742811989592	0.001647875064362157	-0.0009508834370178467
0.006698018239612595	-0.002006892166926046	0.004269811813942358	0.004043848184463637
0.007662845719151069	-0.003918900878032462	0.002208378663910254	-0.003276661438594229
0.009184754819821665	-0.004063927748756072	-0.002144534822960811	-0.001169096315627436
0.01107997756075749	-0.01072480435399778	0.002623221896100261	-0.001547064984553869
0.01059546579288963	-0.01115591213764828	0.00153857441127282	-0.001248292399486161
0.00636193906414315	-0.01044646787141067	-0.0009413561894893487	-0.001779888545567117
-0.003680058727236247	-0.01337085721651967	-0.001665793331084698	-0.0009749377886560473
-0.00954637074418889	-0.01413545914520895	-0.003082147073046218	0.001128579985976822
-0.008346793951962877	-0.01604322392120945	-0.004567361282446847	0.0007204447349934416
-0.01655467498691541	-0.01269408754053399	-0.0003456121962379416	-0.004814382802447736
-0.01538805315342666	-0.01169057654217773	-0.004578918919188057	0.003349489121938702
-0.01524669815276061	-0.0008591004974930606	-0.003857617315827	0.0007979456976385161
-0.01258901338807226	0.0006912763822525459	0.003403629113082749	-0.0005724109613241646
-0.005609394669991591	-0.001161328118410281	0.000595062152964897	0.00309169947023552
0.001480458195638579	-0.001285116288169764	-0.003506146423461733	0.0007373538753619385
-0.0009524152299760618	0.004377851900835012	-0.003811346331401399	0.0005504660906415324
0.005330340183966368	0.01207771458696565	-0.0009918652697137682	0.0004721806960000964
0.0008275855188179103	0.007340418847653441	-0.003378994492377842	-0.003171146243629615
-0.00150800949049726	0.00399232422463596	-0.002888322116858036	-0.00419164448245193
-0.002126539574033957	0.005678317441593567	-0.002802630569507024	0.001575601887470751
-0.007166710681528212	0.004210583545768182	-0.001836902876019623	0.003745887674710936
-0.005914096641504012	0.003714493806249479	-0.006232295896684588	0.0006828306701129898
-0.001201375499046292	0.006629483913189529	-0.00537488479755338	0.000448090343200039
0.003738503728156768	0.009343651628352953	-0.004602577580030481	0.0006736358955939171
0.006330141081587497	0.01209061647324533	-0.008794201436949747	-0.0005557544115306253
0.007271097448833328	0.01182868907689002	-0.006479756211314996	0.0003506153911781544
0.005262945185597982	0.007533561147972103	-0.007098651765927571	0.002144819915114711
0.001036066425415833	0.005745636062257625	-0.002055306391875539	-0.001879495660268706
0.001547928331889973	0.004733014443258804	-0.002495379449031642	-0.0009204882251867451
-0.0001799486614895541	0.006654656865244641	-0.002653599409292756	-0.002582557353716402
-0.001598819417423621	-0.002654667074426686	-0.001904202543791597	0.001323453037518429
-0.004193544760180212	-0.01218720006743637	-0.008781715629938347	-0.004729570805299096
0.004475371768505669	-0.01404446059509164	-0.004885887177126586	-0.001246026837746394
-0.000331817352179085	-0.0197718632308438	-0.006908171178793381	0.005136617532321914
0.00176338630582086	-0.01988820200100085	0.004017157966011757	0.001553546373591603
-0.002498249102097149	-0.01857395934554581	-0.0008486964530166486	3.699151104524018e-05
-0.005047801303482956	-0.01108675125436529	0.001672731554710374	0.0001149454202514215
-0.004011406090482176	-0.009770751917339055	-9.618580869346337e-05	0.002778835528102305
-0.002411143728990377	-0.01586051715235644	0.001523660566336394	0.001416737809873512
-0.004170184051770701	-0.01529476824970472	-0.00094948069333818	0.003628268906681666
-0.007490275490465951	-0.009348733711702554	-0.002125958191227267	-0.0004126903576572451
-0.003868917187334864	-0.004918532459038893	-0.001533798581035987	-0.002312654940731144
-0.0004903536242024635	-0.001518566781842792	0.00485549278103187	-0.000867358848413739
-0.001474931842148957	0.007632825655665121	0.005136573817358024	-0.002057609046581137
-0.00239695158517938	0.01787456251821655	0.001133629019925397	0.0007443413346630542
0.003815109330572222	0.01743831234791681	0.005791232619420221	0.001112062757089816
0.006977674643305246	0.01648455497151253	0.00627036737526667	-0.002351173798115439
0.006952830609454769	0.01716429815011019	0.00483903357819953	-0.0005512054953406593
0.005907612667615149	0.01870477187027696	0.004588942858236189	-0.003195995388916917
0.002747402363391391	0.01223438847644652	0.006678698761780697	-8.238093366749328e-05
0.005957447268955703	0.004227112966804351	0.004428527522650127	-0.002671275598177712
-0.0004581963362870168	0.00159338112743864	0.006395705333597848	-0.001548356052320954
-0.001084188172880297	0.0001294307050529553	0.001643666846273762	-0.002799074442840021
-0.0002031692504196708	4.063128711154641e-06	0.002056454219185072	-0.003695086738174559
0.003766396818276686	0.004169681698077246	0.004724322004337631	0.0005204358466602897
0.005098008407383109	0.01318817296067881	0.005507686938292154	-0.004802398600712281
0.003141774967902034	0.01219782042078715	0.0002739256800385764	-0.001359077908148631
0.0036703346745067	0.002014014027180613	1.671177732606092e-05	-0.00208869604834388
0.001342075958368205	-0.002888591702636086	-0.003023883348324168	-0.001699965809547986
0.003372300545496282	-0.004914126872127183	0.001880316524070079	0.002197969145945085
0.002393494289890984	-0.003118667387396456	0.0006720701018611129	-0.001741069136476232
0.0105562770035528	-0.00160203279575098	-0.002844954358109125	0.00598303860265924
0.006711919624166332	-0.001618414374692984	-0.0005375103112197307	0.0005992909548467821
0.01283632750209321	0.0004984925779108457	0.003855259820689135	0.0007952544208277035
0.007031214955451007	-0.0001657304656419268	0.008571559853123965	0.004189190843504326
-0.003334139472807783	-0.005684436030124885	0.005575535754621625	-0.0006660746740139033
-0.001588751853669103	-0.004494128092443365	0.001736563502945929	0.002468462560635289
-0.009139329060754622	-0.003865016801082875	-0.0002420411693182107	-0.001549389754345507
-0.01576733866767285	-0.00701507369481492	0.001337994394671557	-0.003071949268760712
-0.01434458551908458	-0.007432311494823065	0.002537507901270347	0.0001509331537676347
-0.006513407671674356	-0.003430004856927914	-0.003810676426057817	0.00121256976546267
-0.006289333188114988	-0.00573573201423328	0.004129488811350597	0.000985135559814112
-0.003630807722755418	-0.003598273294074595	0.003188790930988599	0.0006768543143493011
-0.00442729002273964	-0.002069237809457263	-0.001472900418332957	0.003691874749191968
-0.001892516069225214	0.002727317725710719	-0.000186326338651187	0.003164406667421675
-0.0001719466334052174	0.002300375344131336	0.003667584115494374	0.002581119714138942
0.00115862001630692	0.005049451564814704	0.0002773812472565444	0.00596549859993266
0.003820148122954786	0.001468917529866442	0.001043485508161403	0.001493014420961677
0.00576971431750888	0.003945919764298792	-0.001678321169685706	-0.0004196394569560929
0.006037088297585248	0.0004511125853723024	0.001308834641545697	-0.00263157649668861
0.003176115211517396	0.0007537002399321942	0.0002498480635270104	-0.0009027205008393801
0.0005392022317784092	0.004022625440282682	0.00292798695916079	0.00296270084016722
-0.001162779489185694	0.0006671587158880316	0.0002814810083980711	0.003884460138720961
0.001628831166474919	0.003975031247228555	0.004973888175991313	0.002678176876349827
0.00633817199527911	0.004467201600100237	0.001234871540300891	-0.00107972419479396
0.007287121956151948	0.01164053033903312	0.00539526534171902	0.0006211236031660746
0.003597489715990046	0.009419801908340193	0.00407259586473438	0.001735553642037086
0.001152132248330734	0.0009970914111264442	0.002692872982538005	-0.001222076478907827
0.0009821716636768145	-0.00764368556743413	-0.0003177937797522541	0.0008535783062941627
0.001236067721547934	-0.008254793557433134	-0.00220464961892114	0.001048445657197613
0.001304151302903162	-0.005922228325128994	-0.007702506617303769	-0.002562596846672756
-0.002915790418835553	-0.004538815378904156	-0.01098252790742089	0.002810331005864717
-0.003469545341540892	-0.003354386269790678	-0.01142055260511442	0.002835826455873855
-0.001988087859455665	-0.003403255313033364	-0.003851454119607502	-0.00147220483876902
-0.003062789281486606	-0.0007092844694891461	-0.005450708744385102	0.001299966376696131
-0.00555029935130313	-0.01113254133840007	-0.00346588448944304	-0.001364678739636556
-0.007396382757284272	-0.01278298997066084	5.725124094227511e-05	-0.003639866750247517
-0.003859193855106194	-0.009312813809175693	-0.003153309741690394	-0.005558118077495099
-0.0006301226959846103	-0.003202493341383406	0.0001361171877140999	-0.004211896011268731
-0.002477162539413788	-0.001907325251978921	0.003911725387855826	-0.000628512111335358
0.001999483681137528	0.003036702013611217	0.002285499409217835	-0.00304972183644173
-0.003197542501009141	0.003069428818379905	-0.002873263492056025	0.0001816684604092539
0.004072222167801703	0.007835488090992321	0.0008957875041498598	-0.001927746156029802
0.005936901217393625	0.01095332354359574	-0.00148436229295338	-0.006136200298356465
0.01385458253644722	0.01273628383477552	-0.0006633512818009937	-0.005726617754950462
0.008164768327362192	0.01316082145898357	0.00337770875061864	-0.003070399818811259
0.008361370968885395	0.01296525547701298	-0.0007362138257746035	-0.0007002573314595033
0.0008870931919711875	-0.004507362738220562	-0.004825020789600711	-0.001079820479217871
-0.0003668384339002248	-0.01360868201832004	0.00193732808655464	-0.0004552666678105482
-0.003749433451362211	-0.01462788372425452	0.007528794763265285	0.005286032226114581
-0.0179260249644063	-0.01175378735435156	0.00360628432588211	0.002394704900486166
-0.01027049111500346	-0.005213929408803037	0.002043426228416735	0.003621326608229941
-0.007639728327511791	-0.002568075521638466	-0.00171859484241226	0.005340937902158205
-0.007566167003905657	0.002770551390350872	0.001100681408971522	0.002046716393140122
-0.00641693821830948	0.003093092381515413	-0.001337450500600211	-0.0002041328102904444
-0.003236850199174293	0.001592857441747022	-0.001860870480138341	0.001419738042150153
-0.003820748575323908	0.004096665557350013	0.002980361524957474	0.00213769630026893
0.004908148515824466	0.0115787497448413	0.002656057248841858	0.001453951368487517
0.007058277850787983	0.01536142540030758	0.001872115319747789	0.0005505202776955254
0.007130415650097767	0.0114993532997444	-0.001988371619487515	-0.0003564591708484628
0.002347428892314801	0.00755075241574802	-0.003635794203221581	-0.002728752487393233
0.003208636959968808	-0.001907971438818233	-0.003478152248276332	-0.002003358804484167
0.002318492953674438	-0.001948498202321254	-0.002065616283445467	0.001227085962240664
0.0003659888360822962	-0.007311982199703903	-0.003515422155068972	0.000590355301334259
-0.005483140496811787	-0.01007551613114966	-0.003182354688714427	0.003621529597905506
-0.00308962700659701	-0.01287690812861764	-0.003807325805107435	0.0001852048706553825
-0.003341713465090141	-0.01235989889713617	-0.001292929170137266	-0.001039418076109068
-0.005575330457371196	-0.01327821110955115	-0.003207428854762908	-0.002593328651480405
-0.00227901576481182	-0.009503780172635373	-0.005059442554446278	-0.005842950331183636
-0.003022991248983657	-0.004449090043582063	-0.004068500787999992	-0.003801634175408604
0.001945593662738622	-0.004025694562250385	-0.001572002096261471	-0.003801620021871242
0.003178191588056146	-0.0008442657585249762	-0.001472369110250234	-0.002007025524497868
0.001560824700598706	0.0006874940397383817	0.002574420052402825	0.0005434989709359733
0.004201896210783871	0.0003122724221533824	0.0003139670076776128	-0.001806398682933683
-0.005765963426610684	0.002866334845205733	-0.00587143844406739	-0.0002126007407667427
-0.000547621825934599	0.002859635330139419	-0.00258783600582269	0.001375836403425577
-0.004818754552476935	0.005582053828209705	0.001579399591230645	0.005057839861463697
-0.00250304867056736	-0.00011017823139839	-1.164993101049615e-06	0.004545165174928316
-0.005781154641678303	-0.002955413849042243	-0.0009247514847955276	0.00259937249859108
-0.009422970601387777	-0.004051083721120665	0.0005651922711308308	0.0002928360793587381
0.003825841908224215	-0.001601291459983649	-0.003104140099835172	-0.001019036381878034
0.008754231109843037	-0.0001915496441129052	-0.001712846696108229	0.0008855345657254252
0.008856473779911563	0.004210843468519741	0.001818795911008474	0.002135960929719733
0.004746432911470539	0.00834206741167836	0.001932591574796333	0.001184049234489063
0.001659767957814401	0.001859283255220952	-0.001630958726593888	0.002069235473209556
0.002618626564111055	0.005575563954012291	-0.0007672480877357354	0.002411231627778793
0.0005487307589660778	0.0127178910743617	-0.003744753962575084	-0.002444127465712987
0.003057743530667643	0.01450506075295837	0.002626847430566407	-0.001244469207612623
0.005849328597124015	0.01035788284897558	0.002472385122178211	-0.002211900227334076
0.009696722375679727	0.009792395090718954	0.002572609708242907	-0.005071047480430291
