0.05467799691600875	-0.01329095776173398	-0.1594643857651418	0.08319245384043221
0.04326424914982031	0.01704313489969881	-0.001058710190421338	0.08869197938847484
0.02428092759807916	0.08045888404167986	0.1464549374328697	0.07523748205401021
0.01018641556787974	0.1358307399849641	0.09168915534942822	0.1305900427369157
-0.03513761902753657	0.1020411235219482	-0.02794092939265484	0.05543596504561263
-0.2272415096088596	0.06827980700551638	-0.02883502121015159	-0.06305322721359935
-0.1267944966222628	0.0465335649314221	0.346998817162031	-0.1335137032691328
-0.01059439870048043	0.05168990437831681	0.2246899773568784	-0.1508480972217678
0.05822173231102931	0.01290727453959318	0.1887381328683567	-0.1385690736293249
0.1081582756388863	0.02336482211466366	0.05930684529688039	-0.07850695341660466
0.1097320690242567	0.01507383512770739	-0.003819697888139874	0.114250930105219
0.007576381867658948	-0.01109947032864528	-0.05607973598269193	0.1399531610191048
0.009464429864706287	-0.01786886112487649	-0.122238530395931	0.03674137057368407
-0.008914197248205873	-0.03055426665050025	-0.1219584214763359	-0.2097743133346161
-0.04818857525602008	-0.03790524079218099	-0.08913976357459152	-0.1904238783623977
-0.01905591033384856	-0.05577263257845266	-0.1552690629829354	-0.06633165122552791
0.01221943372745842	-0.04378006210900221	-0.1391826648679856	0.04986646968117067
0.003446509432168103	-0.08425671485856484	-0.06852978050804576	0.1430507135020818
-0.01411064895580189	-0.09270605000329137	-0.1248150933342378	0.1189162416893797
0.03161546616329168	-0.05654663312389993	-0.1478485634052512	0.02068815954818014
0.02444013793628711	-0.02448178075386492	0.1260450868276223	-0.07061294686033631
-0.008434611147378297	0.03836292901722429	0.1474698538774181	-0.0392588639736219
-0.07292233165185273	0.05162031914145462	0.06730263072744211	0.01692774092989732
-0.1305774712661933	0.04779941583264116	0.01617663077836685	0.03943325732775656
-0.1104647157232098	0.007507415299302387	0.04613282551815839	0.06658118662972341
-0.1473014174925746	0.0008693941985216318	0.05616885927794389	0.1407237436974929
-0.03314018086061325	-0.009357559763648739	-0.04170152856046473	0.2509958445185476
0.1028438385198712	0.01285518195396636	-0.0421567498016949	0.1895348157540497
0.1509531973045502	0.04146919669047571	-0.01998498820108847	-0.05722740631972523
0.08648372215279934	0.02376213649631869	-0.01273554965682405	-0.167090203750417
0.01044324249297398	0.008637468760415485	-0.01316431957024359	-0.1841141623851646
-0.01308814706149476	0.02014255356357247	0.008481200273262126	-0.1047411879561351
-0.03317192807738761	0.01487007349807453	0.04724268863210634	0.0003548500076262498
-0.007696214168011155	0.01451588604316091	0.02408999707278702	0.03058134998081412
0.003242325187182121	0.003111971007529172	0.004438850260756557	0.03572245588770945
0.07113348542932478	0.003605356283949109	-0.01685947997107076	0.09473832101182346
0.09394870569369222	0.03211245493759943	-0.03135281387685619	0.1701250578808647
0.06571048666581457	-0.003013241955281665	-0.008991280053395187	0.1363439519555483
0.06164322542991606	0.01048045218907159	-0.005988364879126877	0.01095795264610077
0.06069410092192807	0.02079610996459233	0.03854474144019464	-0.1115974694534292
0.04734389224693139	0.02818513099518997	0.02013201575519814	-0.1198058946282288
0.0419313443144064	0.008937202943120804	0.07353013128655561	-0.03848723085610821
0.03259812471190804	-0.01643213360180565	-0.004712581536051068	-0.03022094988563086
0.03851300171943801	-0.01602788622713975	-0.05078273491461457	-0.02654251519757095
0.02516967209875821	-0.009692955322869352	-0.02317583422022662	-0.005664620638625686
-0.005733926365912105	-0.05282753402393826	-0.02721649986503906	-0.02558706165605695
-0.05618039174400079	-0.1060549037838882	0.008617707277058961	0.0561285411024934
-0.1028578079366756	-0.0853371848798771	0.03028098036187056	0.08181813830631902
-0.07895352353427759	-0.07377312277602213	0.06462364420814727	0.0705333923940645
-0.05774446286754027	-0.02118458911024176	0.02951882050120735	-0.1465838722681685
-0.003553658024195622	0.01669084114761121	-0.02573167696749333	-0.153365862418737
0.0006811247355242309	0.01906462001336269	-0.01158827285063617	-0.09340971104678555
-0.02665181324188025	-0.0192576279523241	0.02489248414988364	0.006499609227310756
-0.0592141270535381	-0.02795648712568574	0.1114229521976088	0.01668127552004142
-0.05923218184937538	0.01847354557396603	0.1239203612955395	0.01088464661936011
-0.01395840868044783	0.03856898225907678	0.03210192604395257	-0.05229173193770864
-0.05351946909116952	0.05330427485350805	-0.01905148125883463	0.01875235833222373
-0.03459743801273273	0.08649666050034094	-0.009290950504266669	0.1038618721134506
0.04571258570409885	0.08248634507480797	-0.08928696092174962	0.1580305330508805
0.08730490498044872	0.09938984664019132	-0.0850732945365528	0.188485402097932
0.04286181047364075	0.08640118150263977	0.0201265658897512	0.06948545309880493
-0.0003898613712068123	-0.005347433492226567	0.1091816170377986	-0.05003786510487863
0.005126411854913573	-0.07910818496959078	0.08200580196898727	-0.2684424609760295
0.008676555910373668	-0.06566470635554124	0.0001644412735665032	-0.261836582793246
-0.01789772303810805	-0.0003350482767676918	-0.07250858742622883	-0.1178146732344632
-0.03179327152730529	0.0192852035000559	0.02708382354235608	-0.05537050371467044
-0.02367763407879823	-0.009654828373473248	0.03193183798919168	0.102252621170051
0.03416938173241604	0.008431346192002608	0.002493261776230839	0.002833112187823368
0.05429551120761336	0.004436260172289367	0.02568285609818631	0.01045703005277068
0.02225029682949324	-0.002507147708427184	0.04471866869179015	0.08342111543370227
-0.001792465101457347	-0.02750590580752679	0.01477993120869613	0.07429436984157001
-0.02869262262989926	-0.06446181431194843	-0.110214069444525	0.008507299989894903
-0.1131206643449838	-0.05336555574045407	-0.1294381396452532	0.03165304239404168
-0.06945740530214221	-0.0130565130449499	-0.1527902456447411	0.04544568284271255
-0.02028096947173741	-0.05107325876727255	-0.02973957651924233	0.1091118499732504
-0.01385463425528776	-0.07118663330697836	-0.08112404203653326	0.06164494510115579
-0.01615350691229034	-0.05583378064517575	0.3490114079537467	-0.1383669257309719
-0.002630459491667659	-0.03444980845696496	0.1222754467363639	-0.001665862374877011
-0.005811719692980862	0.01410805859672584	-0.0437263105207698	-0.0156459714831952
0.02166607012525032	0.03765592615143695	-0.1005254581624499	-0.1410137960853999
0.05857558186080838	0.08134367180669325	-0.1096902028054242	-0.08600159420972942
0.05042462492393384	0.09380744953543507	0.05318381371736099	-0.02255962382774913
0.05253048675411245	0.08017521879623733	0.03464120148090759	-0.008941283462910085
0.05732430878926068	0.02499184686956874	0.03218385087024594	0.005155320628857965
0.05231339895411342	0.01335699084394033	0.07867002823969146	0.03344930688528229
0.04901724488832968	0.005725063046513599	-0.01072905133333833	0.1641544318884028
-0.05173135124797573	-0.003171035064270274	-0.08922810518274429	0.318589100546364
-0.09063697977326965	-0.02404720538693863	-0.05913370093629866	0.2574999690660321
-0.02388724161870971	-0.02545344024419335	-0.07711509137169435	-0.08071026330339431
0.05972629117622279	-0.02775180136084079	-0.06912999502181262	-0.3164454353322912
0.05627659799630601	-0.01787399788147339	-0.0711391943617122	-0.2689817705860766
0.008106465289235714	-0.02430551193678103	-0.0389396235774026	-0.07370558205293463
-0.0813766143837686	-0.03667268991096496	-0.04369103329001282	-0.006136497888584447
-0.08394979110791943	-0.006774931472192628	-0.05931053333765855	-0.05534827921331463
-0.052577244046361	0.01335909482362231	-0.09769139179530281	-0.1018142892400917
0.04577126206048499	0.04459948982434402	-0.0948178722314424	-0.09629804036018691
0.08663492096805854	0.04853184860151206	-0.02708046949953699	-0.07176872524840069
0.03251400054916735	0.04995622643127421	0.001884494661648497	-0.04475081999280455
-0.005796473488592468	0.02592468055382698	-0.008925832335911144	0.06731089493854887
0.02975139059334202	-0.0286401845064768	-0.01811293264617233	0.1004240584377689
0.08433118921187534	-0.0679682944689505	0.0624625788572083	0.109839193367991
0.04726166949594133	-0.0640127033736803	0.09150409831938548	0.003522646811785978
-0.02867199054174672	-0.03942134161102908	0.09922747841347494	-0.0001261390698015096
-0.02688184996234989	-0.01447552240419411	0.1360637811671759	0.04961545831284282
0.02157294254965945	0.01352331006658044	0.06077277230052253	0.122742084536091
-0.02378569719016727	0.008669701666346978	0.1014892115684484	0.09888022006785444
-0.08491492931423131	0.0613294727227253	-0.03776654173172579	0.02922923689008182
-0.0725966950394568	0.06433782400075905	0.007553282700898153	-0.08318692504568681
-0.03385808736368694	0.04740613675281206	0.03978244583838497	-0.07482830894176121
0.009269804242674231	0.04645731903986725	0.003187925036396276	-0.02349386678927582
0.05535683806808675	0.04177892295488281	0.09960089814666978	0.02532742746971667
0.03010806997467896	0.0269389859802466	0.1104698039489442	0.01135320733752524
0.001103165271409063	-0.02400059517705867	0.02369959987725473	0.08800198023121619
-0.02923201685763849	-0.06069920506231141	0.01381463622372424	0.07963049114721775
-0.02949001494007092	-0.03064327302248514	-0.0407363147625829	0.03045511233195577
-0.07826087874160213	-0.01952510544723304	0.007786161378978288	0.01840042460947315
-0.09874018945207806	-0.03309341398502989	-0.01321388790981933	-0.008199829288889708
-0.03966707617713256	0.009126960649558258	-0.03939093218857129	-0.08420901605934603
0.08795980935344369	0.07814279701514459	-0.0958636537192428	-0.004774523604037286
0.1417256150140813	0.07538917650423119	-0.08718299198350234	0.07113563171046242
0.0550594281234757	0.04141913326038034	-0.0441886801078403	0.1532434160615638
0.03241142798233003	0.01171647393564611	-0.04285644571129343	0.009333383263425298
-0.04296195401798449	-0.01255959604377363	-0.08173278740545194	-0.07574606104704373
-0.02053852178698374	-0.04280416897943952	-0.04867180991950468	-0.1025496028434221
-0.01331156384792751	-0.05373415649406932	-0.06327115577757556	-0.04437858440484769
0.01959741836448494	-0.05852617746625558	-0.04855586106568416	-0.01442778451596152
0.01467768611872643	-0.04241552196274701	-0.06663332648375431	-0.01617941581472596
0.0004139746028701001	-0.0462819350556131	0.02241699953849864	0.03037132307278018
-0.06936874728691303	-0.03772317234815013	-0.001292937417186969	0.09061782129596288
-0.05926046178001559	-0.07174378960995165	0.01009621382606074	0.1225023553417424
-0.0841610763517797	-0.1430364037619868	0.01123743904506836	0.03125652411459125
-0.06259883889407145	-0.06183207266222921	0.06489450000207561	-0.02332900245792834
-0.03896429814697221	0.002262846910194851	-0.0004878106610856185	0.02729054642870338
0.05483048257018166	0.03985786928833419	0.02196277413669472	0.1476158975174823
0.07419573120240475	0.01841680002525523	0.03441691133694809	0.1043786892269743
0.05138972973488444	0.01321631112213266	0.1657315439549325	0.04434971597761152
0.09497305689868589	0.07442059719069516	0.1583505238845079	-0.04054036798212313
0.05500462314599949	0.08726835697255884	0.04861013405115637	-0.003306880732333158
0.0102888238358444	0.07611882559052387	-0.06711222507451634	0.05979522242912567
-0.03742290841718928	0.06055635801097264	-0.09101176558257662	0.006236515673229187
-0.01818458447924845	0.04974584568923394	-0.07223288123856238	-0.1293564417600669
-0.03644143361411257	0.04047606010478676	-0.05771385126387582	-0.2096098617877131
-0.03061541146253004	0.01843481767467017	-0.1103198781583987	-0.1756039670627987
0.02916327377452474	0.001573672838495082	-0.08595629329172133	-0.1765091519525994
0.07226693260415594	0.004723949626653897	-0.0586932230495482	-0.1627158856125474
0.1090351633511748	0.0003468590171808769	-0.2063735104539506	-0.09260559156715227
0.07443048350262121	0.0006498083716603035	-0.1509260451532924	-0.05349842504245327
0.03706795015888203	0.0123321041636367	-0.0150253647949198	-0.05620628436660859
0.05965161753362404	-0.001455606336464682	0.2694104831074791	-0.04090618913221503
-0.02908594915255515	-0.0236078012537156	0.2321260267557212	-0.001638225290380981
-0.05237786261192201	-0.03953410169571981	0.2127441832490365	0.0273295858375549
-0.06982199832409043	-0.05251266268738383	0.2886839143545581	0.04210976826905648
0.007713167384985692	-0.01121157138940019	0.1304352835281542	0.08782275865993841
-0.06348387215632709	0.01101915529975657	0.007075456087589135	0.1756724454706275
-0.0662283479401729	0.00560094479124875	-0.1126937150132092	0.2648900791722092
-0.02631398266413107	-0.01275530796062195	-0.07480483430171446	0.1731429787834442
-0.04782471157896245	-0.06214445331462563	-0.007833978517639421	-0.003053398292094772
-0.003183782098245091	-0.08888663375035623	0.2582819479312472	-0.1614197920191072
-0.04226797823940306	-0.06947256857064253	0.09706377647715766	-0.08652924214629765
-0.01321050509251988	-0.03646062109987117	0.01907330216194911	0.1185294488725732
0.002379306270705559	0.02021739459568379	0.006024399244257305	0.1286059225500709
-0.05538708753888767	0.04128065295495811	0.01333604445022586	0.003469087866054055
-0.03608119718770853	0.0245898321430278	-0.002511519503480711	-0.08148267301416505
-0.01417390408005146	0.0007709716835917878	0.007834976084164468	-0.2367942277587089
0.0438468471111198	0.0265161275621777	-0.07531099284420197	-0.138769609141193
0.08161266295960183	0.04218225362950811	-0.1344870007777228	-0.05247111174331342
0.07123210926744093	0.02189829952386015	-0.13512671454239	0.0202892272507837
0.06882630034963515	0.02697559939984675	-0.0906312610570993	0.07283215891492596
0.09421653639246612	0.04886295658136011	-0.07311093767982815	0.07671028796102713
0.047979041207138	0.02845643300191775	0.007132430802729795	0.0018619257578129
-0.08769774707701981	0.0193304355974102	0.02757862912173859	-0.04843278574420853
-0.05143181345290292	0.01596930242414402	0.04398147276351683	-0.01852904592696299
0.01250960016764766	0.06349796071355819	0.01440173462884595	0.03040983523474119
-0.008806961804856919	0.03445519775174442	-0.01442308503456892	0.06486446895081872
-0.06529228674428239	-0.06626493135027386	-0.07135854445630385	0.06594036886611712
-0.06906430995557312	-0.08973432203669304	-0.179723536969412	0.102265739185606
-0.05066683567382591	-0.05025669573762775	-0.2374481564797632	0.09199967340422571
-0.03609982985502935	0.01882944095115719	-0.2535944216601044	0.032069386009508
0.04425604877414929	0.05327232185308945	-0.1934002725215877	-0.0419531072754022
0.0332788688733287	0.07635931450530768	-0.1215938124035499	-0.03320816223021657
-0.005648343072743805	0.04119540374599995	-0.01099429408550996	0.05723806477508969
-0.003480263700490073	-0.002708564371393895	0.3670307130292411	0.02841935752830506
0.04087436817226816	-0.04021959270932328	0.4290958685121166	-0.03451440372097874
0.006191057788846397	-0.07665459545053946	0.2051946934069153	-0.1073781885095556
-0.01314240739234379	-0.1459518300569038	0.0711132381166239	-0.06038840915889056
0.006809988063800193	-0.1340915254512906	0.0298538204904717	-0.03535054623414214
0.03688484914022244	-0.05626082314862831	-0.003324748143124336	0.04260284164420233
0.03879504672991328	-0.01453788210173913	-0.1899028138906095	0.02991164178209302
0.03150028993602466	0.0339736008891089	0.06109778760251591	-0.01718063924999068
0.03413406164004629	0.0628501025111721	0.1423009524753396	-0.0637961796233731
0.05990863454793401	0.03100508581551048	0.09614565619840509	-0.09857853414302938
-0.04237630322828969	0.004133775324638137	-0.02619269438115326	-0.03858603538594331
-0.1015643738916552	-0.02707102510625519	-0.04706207030442748	-0.03926241232918905
-0.04786808411000118	-0.03209152151648534	-0.03878451971269156	-0.01358884612914104
-0.02198753059161311	-0.01713164912475811	-0.121771554510767	0.01253824999344869
0.00566292929417622	-0.001993324923668833	-0.0122881226250405	0.02638589102810739
-0.0002420345186644188	0.03705529722164515	-0.009101748204163377	0.01369265299666828
-0.06991231909154112	0.04570067863506928	-0.04718992893774092	0.1316639264236204
-0.02975167426722627	0.01428498553961752	-0.03994437071899716	0.2950594481508391
-0.01992804467662104	0.001004940246825656	-0.03034196959870156	0.2126510065911865
0.007334016120788344	0.004334985110448199	-0.1155138425233555	-0.1337979242777431
-0.02949777558523693	0.03475746725292753	-0.0491537584555506	-0.3332070012972952
0.01215156714644688	0.02956982292529704	0.0245847937084921	-0.2083581126615529
0.04568981104131124	0.01613738796169029	-0.09755263667887981	-0.1662834509779786
0.03036183778495574	0.03145020636042551	-0.1467751723658502	-0.1567974850379198
0.02630231356890487	0.04671383825625712	-0.02009907694511763	0.07264333172309469
0.02082547328506788	0.00972083313090426	0.1016818392218291	0.09886778043519223
-0.001362908565352526	-0.004473342270944993	0.07967005962973504	0.1169020235558855
-0.02195103482501193	0.007294572788693715	0.06638493288913767	0.09958603837402967
0.01665261397480429	0.05500354499937891	0.174871865422327	-0.04344633371292714
0.01435512967104678	0.09336004272844753	0.05114036583505053	-0.08198893822000247
0.01877732029946377	0.08299256967160683	-0.04466722136986238	-0.07318489627140294
0.02806320485713243	0.040736259443818	-0.08197936762813501	-0.01107936081926616
-0.04591697725985284	-0.01562851733279715	-0.04591614001243729	0.06314034806825654
-0.06436194738202426	-0.08149487323205826	0.015984922366157	0.1064442403950708
-0.009568957574771041	-0.1208800840386708	0.04135664598754617	0.1440704513079324
0.04185827475065369	-0.07080427666053647	0.02477050270139764	0.1273778503312109
0.06070280494834786	-0.03129992448582175	0.009664343278391423	-0.01408228904911015
0.02854590111569457	0.003016812662663612	-0.01495032047780945	-0.1331125884685581
-0.05449217148079077	0.03607912811026358	-0.06369565581342876	-0.1292712801953024
-0.06717851071471834	0.04946307220403205	-0.06842563704524771	-0.04470972419783139
-0.01057203982543306	0.04270639163861389	-0.04155141383817402	0.04148144224151412
0.05507808665416344	0.01408889317541141	0.0132044286815071	0.07817885547135919
0.04920332503557722	0.001128328207150609	0.165234666611129	0.08193155806323434
0.03819406470832845	0.02396312650316435	0.06018346015822432	-0.01049845557189763
0.06565350087997615	0.01120611221474568	0.002169235722702841	-0.0659803390661443
0.06455282978763038	-0.06840617331338419	-0.05345146516290156	-0.1371436735941689
0.05132795050368834	-0.05302586237034046	-0.03598660661167447	0.005215204772724032
0.01918877148126777	0.002638848580711629	-0.01998763031008472	0.07044011748357498
0.02214269565201915	0.02839073684184858	0.1482260261890054	0.1000523999994432
0.004087710592419812	-0.002918632403027983	0.1826974369687583	0.06200736278876039
-0.1100069200825185	-0.06140317457993119	0.1045746327228209	0.06428952465289445
-0.01527763188626666	-0.05430275507675078	-0.07996708199622213	0.2491966087824591
-0.04551306059529257	-0.04640094402654567	-0.1146027270054981	0.1129215440262909
0.003484382449371661	-0.05513663179038427	-0.113196422059555	-0.1180783688470832
0.01369507796504864	-0.03097343560004399	-0.1008695500927835	-0.1825551385173325
-0.02767024284286272	0.00877984781946901	-0.1199055572879092	-0.1700294644233352
-0.002913369578954841	0.0332214920543519	-0.1022856056157141	-0.06651591941004324
-0.006818001552469895	0.03049483322838371	0.1277561064343554	0.06082656903307785
0.02248661593474294	0.009315141801606312	0.1840901471493817	0.09921013733302088
0.02457452877012467	0.009074130841964715	0.174678059794526	0.0124152457911249
0.02327473630137189	0.02661491520384182	-0.006206142122177575	-0.02953474274836747
-0.04266988625750642	0.03790655961928522	-0.0122070354060453	-0.06405185527633074
-0.06549510469814859	0.01488315420077781	-0.02287333356973067	-0.0636055416104381
-0.0476968485946545	-0.02431229862718148	-0.04694337079880148	-0.009313212083501457
-0.03010303702466724	-0.003689192387859355	-0.0826511614919138	0.1246246448552234
-0.06772080572720246	-0.0008586360834869926	-0.07301881140936065	0.1037780725788806
-0.04257088670246661	0.0017945172238324	-0.03462631593456567	0.03736046437776726
-0.02060626388550498	0.04384946526562733	0.05649397342684344	0.03111487712444585
-0.05204110552985826	0.0426630188052334	0.175342255778174	0.06259027562521141
-0.03777562592708304	0.02540193392138286	0.1064498124937509	0.03068527780008402
-0.003343432243709245	-0.01795638274509182	0.03111751547729746	-0.05539907568132004
0.04829977247814977	-0.02415481583472169	-0.03333648747250944	-0.01685812448828325
0.02538296886299655	-0.01630151756031219	-0.1336980235354128	0.07062868627697139
0.007089121025429881	-0.02103702694565038	-0.1166929731198253	0.2010541836316926
0.02305086588007799	-0.05413755394774131	-0.2186801909849485	0.07030852339054494
0.03123145900179465	-0.04944810211585257	-0.1922336378685764	-0.07103997991383375
0.03435228227530127	-0.004048444916402802	-0.08901671136083714	-0.1805530299669089
0.01698641507632179	0.03044621617978867	0.1394306449782722	-0.1979504057228707
0.006630312781175748	0.02862879358652283	0.2200277885321338	-0.1018359911979638
-0.02110299197276314	0.03965775890259593	0.1664516917317011	-0.05380501025218502
-0.03884302542204506	0.03666352169718102	0.1373576259080138	0.1190887074842809
-0.009983772771780048	0.05763793808181901	0.05485695885025093	0.1326697818928272
0.03486660966155607	0.03809972792768317	0.08864833020320166	0.1505632509853281
0.04535280513806482	0.02108268901009271	0.1093443528676232	0.1032459535006638
0.05454247275469594	0.01569862419272118	0.2118120583447698	0.03760769735927955
0.03804778728412474	0.003764010652162646	0.02775625824026417	-0.1297933348084201
0.02670458855285244	-0.02115375961294268	-0.05331009448166667	-0.2608336437360872
0.03872906278941531	-0.004264079359245007	-0.0544791826875269	-0.2998039179716191
0.05554340796614077	0.01472665695423126	-0.07779487984839686	-0.174964769064483
0.01202079869694408	0.00606490800395537	-0.08490964460192041	-0.03461476103818375
-0.00499172615726723	-0.03138151286906125	-0.09686130002683249	0.03603177127344059
-0.02793988512567181	-0.05725249459679434	-0.055896089517431	0.05881186137588244
-0.02123372714738866	-0.06561153590282798	-0.09597541580217296	0.132437986546232
-0.01780189592743509	-0.04948729197740167	-0.04662673660821275	0.04104129741825546
0.06084237156835964	0.009341729370786702	0.1210099197843418	-0.06557662168005142
0.05595978629484355	0.02417896342469084	0.0249436309611745	-0.1271239897900481
-0.00249305765473044	0.01845202813398087	-0.04454720999498279	-0.1081748952172873
0.01582364744074904	-0.03820170945087843	-0.08336178223730929	-0.05529332300122786
0.01973242129676329	-0.05411488678248392	-0.06083469048243034	-0.06924939075727786
-0.0135999020927643	-0.04544799626587773	0.05753785228796153	0.002838508712365551
0.03332787453145779	-0.09757724606729354	0.03415826457060875	0.06599277499171356
0.03055437645157863	-0.1751937844373746	-0.07659214206076081	0.06614422691665277
-0.03768987070981018	-0.0788369012160488	-0.09277871013646094	0.1076728201971638
-0.03891167604645931	0.002318904165832566	0.03330538511040098	0.1559688487382644
-0.00870639216482222	0.07535840941980082	0.07119105955106067	0.1777578287326459
0.08865577457620483	0.1143888112901941	0.1179152741170991	0.1076788716959199
0.041878376570071	0.08632292440381591	-0.0007984730505998978	-0.09746425157480031
-0.04776483651907423	0.09534724421127812	-0.04901228373252339	-0.2028003858801576
-0.0536253458363037	0.04015961648522331	-0.00786406971728758	-0.08965906229723695
-0.05931114013646863	-0.02771507939521573	-0.01771893933449559	0.08292787959372591
-0.09609528077191545	-0.02639487152440327	0.03677598904574336	0.130418421880817
-0.03497677642064512	-0.009735704102493185	-0.01815246012161608	0.07082747468903046
0.004412166808827866	0.006773148046871453	-0.03970588799915118	-0.0479013367969643
-0.04432350426558981	0.01377810014759852	-0.07947389084622324	-0.07042289822785774
-0.02909513485850394	0.003916395720315634	-0.123255626486	-0.0313664469458159
-0.006276044522426335	-0.03103209759786121	-0.154099498422333	-0.02486535736336768
0.01751911152479936	-0.03956388158864124	-0.1216356933909519	-0.02967507921262698
-0.02546882239573071	-0.01486897751727411	-0.0672452589119738	0.04601946829462714
-0.17173870557171	-0.0162684777915258	-0.05321292450285191	0.06015517643210554
-0.04318993751246757	0.0248092625137137	-0.02702697129511809	0.01743277021224061
-0.03247936476361891	0.0595314787729098	0.05107548316161473	-0.08041234725923227
0.004306552280314485	0.0831677712492444	0.05850101539664327	-0.08081050150374887
0.0122932787805966	0.1214045741349687	0.04078544918356362	0.01277480204452186
0.03151859691623943	0.100966523708179	-0.0290582113927484	0.0202143927989463
0.01111817814980387	0.03410906947445464	0.06151395352701261	0.01760594516076524
-0.04992805909819113	0.01528853877364251	0.153845452993626	0.02472423360448298
-0.03010732116541798	0.02688670006226976	0.03284737628031267	0.06683057292462956
-0.05341934960269235	0.0083102818258039	0.03007850136040642	0.1031804209995058
-0.0187049867411652	-0.001418491861799023	0.02302920813448308	0.08199255520886316
-0.01566889313082127	0.005461547849213175	0.02210405542195478	-0.05716300920338564
0.02113944875497736	0.01466003160680556	-0.001016412741191132	-0.09557226554141918
0.02363846481671032	0.01807582171381808	-0.007880609484064643	-0.004769866001016439
0.009243547655797966	0.03640022853678566	0.01464617468491191	0.01000918770685117
0.006189852376301539	0.03350847454220046	0.02443251294909544	-0.0006596779956761158
-0.002817377168126174	0.0210151111375873	0.002961937799934662	0.03706673494644878
0.03943820186784872	0.003276721146980716	-0.006793367199294638	0.03116208273395513
0.09446001442407501	-0.004444455550406839	-0.00764595642515415	-0.002245175598086035
0.09140771285535546	-0.02712840876033373	-0.006317162017299835	0.01558397461045159
0.06502754880656145	-0.02952246361173118	-0.03426990521181764	0.01712775934355876
0.02470238393318597	-0.05631433202144531	-0.06452374006833902	0.03233497472676715
0.02214859246209619	-0.09360599994937166	-0.09196281062287026	0.0183654098477401
0.03244630813510215	-0.06846599988946989	-0.08641209529753972	0.005675219462158545
0.01089180758033535	-0.03689749726626374	-0.08226693690606406	-0.005529172453900508
-0.0005995902754057777	-0.07573748117685769	0.003412893742442196	-0.05072987924438137
-0.007704794642481493	-0.07130129435132743	0.1503432654304864	-0.01057711262876096
0.0002075906341716212	-0.05539797111233054	0.2500157932811016	0.03014013073394919
0.03658728620162986	-0.07322338514512844	0.08499596860171407	0.06402723112218292
0.03279089803546654	-0.04752015774504705	0.006021887934901675	0.05065736731609258
0.04601212336370397	-0.003579343951016669	0.02817243774708746	0.0134398823541663
0.009456401359592723	0.01904508614973517	0.03163496072221227	-0.02916482944325384
-0.04198747087429304	0.006890054348568288	0.005048431112086665	-0.03770981464451815
-0.02324939528996855	-0.01286713054262305	-0.006414406922121973	-0.004621095158224737
-0.01196539067508328	-0.02283074186561428	0.04329242722585515	-0.00995534559173249
-0.02020123506786168	-0.0108560662765717	0.02415403078363399	0.0353747175498817
-0.03057705647687592	0.0104676306402612	-0.01193304270022713	0.007661049624188346
0.0052272081804776	0.02122948750280632	-0.007196281490870111	-0.006923569424493806
0.06793310802699719	-0.02096672871394929	-0.007272083924356789	-0.04707015198036467
0.06165866441690379	-0.05494113520391497	0.004015463395691289	-0.05204695566606782
0.05598476785937216	-0.02508227584631756	0.01956802868868393	-0.04691577201542325
0.04600831098240822	0.03678188930833815	0.002099155890013505	-0.03350956348768651
0.02535456586963401	0.07036910237106328	-0.02344652727575423	-0.03368374402249204
0.0002409195167401347	0.04965563328020937	-0.06809519851693369	-0.0009555455423850665
-0.02283472145801841	-0.01158064247373581	-0.1062113420633407	0.04914174906380277
-0.05954928862265131	-0.04182795783310868	-0.1331760140178265	0.03367199490432482
-0.07235478259886245	-0.05256729532637437	-0.03732300098435767	0.00699471335072905
-0.01468153306736671	-0.07897512806077396	0.06864516839414479	0.0266040161992368
0.03398412321664968	-0.01437350668337349	0.005794914771693018	0.05842069465782141
0.06669105109343711	0.05085710128193601	0.06361881087619269	0.03096743917359478
-0.0419225842781831	0.09887525726714083	0.1061513921038654	0.1101935550014567
-0.1035886329553759	0.14934679913617	0.004836376392013826	0.1886243726286845
-0.05796742690546064	0.1305923270051553	0.0160970260064622	0.1037698048147873
-0.01887940154325035	0.1196879385416381	0.02561698840634801	-0.1207706919113483
-0.007515546149607231	0.08071137287257153	0.05493111619286372	-0.2887472089466113
0.004689806556218727	0.004236916877603976	0.05240257494497252	-0.1752637097116688
0.05832697170121445	-0.03302046765089903	0.01430224651594834	-0.005340279416562406
0.01521698122421776	-0.02927259663533705	-0.06343927109209349	0.1344978871447413
0.008595634186927645	-0.01739121169062786	-0.1044071804890647	0.1007039730436108
0.007060036693167265	0.01865372505699878	-0.1307632153132148	-0.04695657904442345
0.001982667192011905	0.05716886804811912	0.02395799245366726	-0.1615508236159212
0.01744240524634533	0.08421704146589719	-0.09936900560267442	-0.1124178350163966
0.01530626694773251	0.03748934045093082	-0.1855416600225048	0.01710544506982252
-0.01045754965187868	0.02505471879183313	-0.1016197644179345	0.02523110695406934
-0.06320939848098128	-0.007998253048470166	0.07531198331804263	-0.02284526216474143
-0.03517677266867589	-0.01172206843801462	0.2778415762918693	-0.09634155112003091
-0.001222123076194868	-0.02755689149397469	0.1492819284307701	-0.09970526169319922
-0.03878036795298203	-0.04957250557036762	0.1840448330975506	0.01341941361999898
-0.0500764466880619	-0.09714389512074142	0.1505195031060959	0.04869842977643593
-0.04206006519788737	-0.1099629867901094	0.02865101849415243	0.02214258677670405
-0.02658064272072473	-0.08063510998978886	-0.0167458745941416	0.000405564610326366
-0.01496566033660051	-0.1119235627064975	0.004378706974345139	0.1337854050468164
0.006405084572900002	-0.09347561238621808	0.02143056464568976	0.1328225667817465
0.000339077999255795	-0.04032760168559187	0.01015940121551519	0.01223216935458649
0.006009395543637761	-0.02079615508651686	-0.05690611337456323	-0.1634078206843727
0.003095242872758366	0.01156876572235285	-0.1652792106334368	-0.3258535587968813
0.002786980549711433	0.01478157277312263	-0.1689527257938806	-0.0939442443912446
-0.006015262463002049	0.0009255525082633158	-0.06233907981839092	0.07841568101388466
-0.001899124939262588	0.003676448061050314	0.1453284133309719	0.1011418962716321
0.008331436905859857	0.004110906161943905	0.05627753381997974	0.1658009677508738
0.08732767418399737	0.02161410880813654	0.01408718258806946	0.1315043248594968
0.1332034001093332	0.04383465769855112	0.04353936180573652	0.03129128698488723
0.07601797273685953	0.04311781775334537	0.02696294180845981	-0.09808853829844696
0.01740870868115104	0.009209427161672746	0.0245763854867131	-0.1126646748282336
-0.001560467990715411	-0.007182435666927703	-0.02034727839168425	-0.1110988705181548
-0.0402367529354254	-0.02876724644970094	-0.06005555727581174	-0.0694151182422507
-0.1607637365334074	-0.02224273555816767	-0.1066617899780933	-0.02172454692328612
-0.07980652860284092	-0.008327371888808936	-0.1055993850818996	0.05147830650355414
-0.0286420923404837	0.01899260200226926	-0.108019460832565	0.02956847155018237
-0.06337592558246256	-0.03791418302139158	-0.08102834127987286	0.02561826648642701
-0.03176194644768368	-0.01891802906097069	0.006066940158866455	0.02006788858933311
-0.0005006366218305736	-0.03659005269204395	0.102799997170378	0.007698197213757779
0.0474267266012359	-0.009186288131160215	0.07911834609815073	0.03548602796713923
0.04815441447999498	0.06146342796476614	0.0590199304061302	0.04379179867373648
0.04925352239087805	0.07647790083754791	0.04144309890114547	0.0443446592379359
0.02590349183451633	0.05788834651137347	0.01168359332938126	0.1158690974412753
0.003370298925744982	0.08878860293250715	-0.04648333216480668	0.2074920809979547
-0.003009368709376841	0.1259464615098171	-0.04697685246914184	0.2486369376592558
-0.001589176827403484	0.09078185720817025	-0.007867889597738249	0.1758182516463995
-0.0115239811308791	0.02584553884523286	-0.02443105190289147	0.006898623959240752
-0.03750893605198394	-0.0197726473123103	-0.01982372856624817	-0.1267982097355641
-0.02778150464582048	-0.0141768857537043	-0.0009399909034059333	-0.1171603257763551
0.00372591989284509	-0.007902715549744707	0.01554801804362845	-0.1630415105568178
0.04974477791358001	-4.587164272612781e-05	-0.00527430463315013	-0.1027102590090192
0.07216374214473063	-0.0001302660376421717	-0.1249555772593066	-0.1382993624641047
0.04576505803856572	-0.01868814937715261	-0.09381561254787267	-0.1073559704465101
-0.02017967089817235	-0.03413628464829476	-0.05741981747241451	-0.03099363670622106
-0.00237514976125532	-0.0365870441616199	-0.1037966571293644	0.02812624344252194
0.04280253636759668	-0.04014959648247232	0.001371871045315501	0.02046862955249854
0.04857647588409836	-0.02457839854875706	0.04124952112296702	0.005869332929082224
0.07061789520836689	-0.01165169130368727	-0.02243176226003758	-0.0979968550909084
0.05181824077853255	-0.001112044851458042	0.03650834690546385	-0.07730277532632182
0.03166632863577765	-0.005791287432139216	0.1063058682221145	-0.03538321098420309
0.01229232327681839	-0.0001689673025986646	0.06294276410081522	-0.003600255618457753
-0.07035590115575013	0.01540811239540975	0.01915415388623247	0.003596714446107457
-0.08052234848607694	0.003666938991675204	0.04117163138746197	0.07030678344860537
-0.06885221186368204	0.03256449270700653	0.03839886896665042	0.08686897669669805
-0.02340603688830053	0.02016624242452677	0.04137122019971601	0.2007408763627519
-0.02382744484521453	-0.01214683175922117	0.001924419549354225	0.2169450062017144
-0.04071585045352399	0.002208109042861666	0.04059359424003901	0.09666157933759403
-0.02177598659684732	-0.004738364032693076	0.03045083971927311	-0.0789563824591713
0.01502850406244922	-0.04898896308271422	-0.0480549232659918	-0.2124020815214616
0.006466684673499494	-0.05732853761924553	-0.08224003280360741	-0.1614220640909245
-0.01005245274183918	-0.05321222682224812	-0.07446707280380717	-0.01060733393904684
0.009042085109338554	-0.0458162561763311	-0.08431989863248038	0.06123092420714481
0.02072325646942173	0.03931528922694047	-0.1951582464350133	0.02228794334458294
0.03490214268926575	0.05994342295101786	-0.1717200687731004	0.02489514442632023
0.01620402123344108	0.0513645569833593	-0.03609030790999194	0.05285679126539303
0.04183417936932971	0.01901814832130786	-0.002932646569366831	0.04359208645375592
-0.003265601374183361	-0.005092632121965522	0.1518625753789515	0.03859986458564255
0.03376162849470871	-0.04266620863411925	0.2211380664853731	0.007446211623740397
-0.02418948790253875	-0.07331511940859953	0.05577849007149299	0.006672396532839783
-0.03524106821946452	-0.07691420170898484	0.02164773521325665	0.003290024772989699
-0.0257437375071008	-0.05042552565134639	0.1912225454394812	-0.03854712721758808
0.01929186329861948	-0.05001771037125745	0.1822161852662315	0.03269561704221949
-0.04947088505013831	-0.01391171418925514	0.1583727316870844	0.05233313439390967
-0.03383809129434329	0.004371635083912773	0.06383427785930913	0.1562240521204113
-0.05523261362865811	0.00224031991787119	-0.0157638568000782	-0.001034753118738308
-0.03604961835588495	-0.006598112445540314	-0.1321448446637813	0.03505519340996973
-0.007148159321424908	0.01868641145423908	-0.1072932251080773	0.09865073794390923
0.06615125892295586	0.02587065325502413	-0.06564556667155476	0.0006673418940988411
0.07972226132178617	0.01742839833512203	-0.06946533033432965	-0.1845461724866634
0.07076759924672611	-0.02694606718383911	-0.05625794245951975	-0.2369056212131204
0.05926987673320789	-0.09786451848638336	0.03843704096260088	-0.1875364177785731
0.03330250906560097	-0.112277971518923	0.2626230449841601	-0.1101484904504205
0.03770720828404407	-0.03232597416968803	0.05158220024068706	-0.01566775761176906
0.03036770772523199	0.044021958558995	-0.05060807783220997	0.1531306421991765
0.006557537766104072	0.09594765510692492	-8.436016347629013e-05	0.1424968240645719
-0.0178779901667531	0.1159900751962909	0.120731039940234	0.08289176929867188
-0.04946508252039335	0.1420392606664213	0.09022501226738272	0.05108494088096095
-0.06606933059653201	0.112906603369758	-0.01568445534807645	0.004314670162160547
-0.05693021341146477	0.07020988595248645	-0.04019383945127357	0.03016608785069591
-0.04834901286733773	0.01753490703825428	-0.0314102967349313	0.064733728688578
-0.05203262764028003	-0.02909240319448807	0.02041701973656117	0.05363861307738041
-0.06637843066457806	-0.02455836403738568	-0.048436334423942	-0.03389167556480499
-0.05073108878605285	-0.03559820217165388	-0.03986992565060719	-0.07237212794813384
-0.02552602578106087	-0.01924615596524896	0.05484432709569735	-0.005910063666648393
0.04613155570358817	0.00633798500374014	0.1267039733382317	-0.09049291207873805
-0.02341772097154224	0.02713585176970695	-0.03790051359564982	-0.1717767350020025
0.02831537533906385	0.05010608241108045	-0.0768463187527076	-0.1628656806987758
0.06253799332794006	0.04738559996744855	-0.1017135457186847	-0.06612974194387582
0.06127044089827444	0.02918367373244522	-0.01573736652749529	-0.05254459602483808
0.04640278677253786	-0.01722799128026468	-0.01570816020815945	-0.01590334008530471
0.06317809875511558	-0.1079516903700569	-0.0245862026437197	0.101271717296066
0.05670589834116683	-0.1515434467663773	-0.05360486620213905	0.07675767851440919
0.0398689953474866	-0.1136913894674023	-0.08591117574550423	0.08048130046168708
0.02802233414590412	-0.01388182191594552	-0.1588999500180917	0.1009466789156163
-0.07587647314148342	0.07204489934322487	-0.2169616152468363	-0.03172991587344639
-0.01426131646988664	0.09196760752043422	-0.07472014910458406	-0.1180376530080445
-0.06706101552278029	0.04854006976331592	0.1718881519737203	-0.08749719403704716
-0.08306410550198022	-0.01837168897481331	0.07831491765784405	-0.01937161034914265
-0.06916505438071531	-0.02678633179032268	0.1192610215924225	0.02284164423573609
-0.06015017412502999	-0.01948855827422586	0.0522685568468515	-0.02301812407927522
-0.01016531934975969	0.009121837139310144	-0.006807308202325953	-0.01400619792408621
-0.008489045145264856	-0.00335821249185228	0.03717694672846997	-0.001658237160592722
-0.01396752033864945	0.02663579869479707	-0.04594346126632447	0.08837798269961973
0.01421155195361351	0.02128214161433677	-0.09857846827314777	0.06196179542376854
0.07691236533553825	0.02727177443764757	-0.08101922223327993	0.1063613657105995
0.05579533384099537	0.02224423927225661	-0.07305339341525217	0.1052495541379101
0.01764465758966237	0.01991649727733578	0.05145800526040623	0.1226296457077935
-0.01750425249985182	-0.03141263436888145	0.05346587525150769	0.2292286427555497
-0.0163450130072469	0.0248949992466187	0.01895550695995493	0.1851200044932792
0.02790357837610308	0.0474941873451242	0.003801307556300196	0.08738070983286755
0.05674714359918281	0.01151486169644507	-0.007204955305468873	-0.2818160821908942
-0.001516492318010507	0.01882614671783959	-0.05316119076302317	-0.2418714891645198
0.01585787527963042	0.03455826896334264	-0.06892290996807472	0.03334667993891006
-0.02293728367648792	0.01422385191948646	-0.05621819516384575	0.01845206363508411
-0.1090755981533017	-0.01604415851248541	-0.1237206191772195	-0.04907935669334734
-0.05664547884582453	-0.01433741287655657	-0.1282336383341352	-0.08132362117478441
0.00212196468773302	-0.01430079777429314	0.114166224829054	0.01807886909843199
0.06705663068627656	-0.03609737788894991	-0.01704961785848143	0.05578349034700495
0.02988702216878785	-0.03887913513113144	-0.03308475149791813	0.001571486713839908
0.03969118201557999	-0.06191510481307454	-0.0399197559538825	-0.07042447146572754
0.0520680372170894	-0.1269593290228314	-0.02802973414428179	-0.1153050129562571
-0.02358717885690481	-0.08632213410335489	0.04714234718471606	-0.04956055755070223
-0.06173285011049626	-0.05432187026680493	0.2501229374637639	0.03530704758532194
-0.06659443503011515	-0.02757698681755607	0.3306743641122655	0.08982458099113205
-0.0465341936915513	0.02744344528492007	0.2134499010682384	0.1345498576678729
0.02057530030622368	0.01915050500556063	0.01099717407632185	0.02133799778003166
0.0527606367929561	0.04489810016776433	-0.1681571307257489	-0.1078651547471337
0.03153746354543272	0.08312668621422656	-0.2532616294188659	-0.1927793363426713
0.02140430878241248	0.03140167773479625	-0.2477105582256051	-0.2341272210994657
-0.007665928937875456	-0.06034594812852098	-0.1560807453701269	-0.2043672946847228
0.008616193469455352	-0.04809264153628965	0.07291958208866496	-0.03119629191244371
-0.02553754453636198	-0.01870856295398231	0.2167592278048367	0.1019499650841927
0.00121319009176398	0.02618273367817528	0.1659605550610316	0.07790231148191656
0.01034453877101199	0.05145943351673712	0.2212451055749324	-0.01040816232663635
0.0154124081952423	0.03892394562453031	-0.00468664232130343	-0.1332970005706449
-0.03311261855173588	0.03121234616954349	-0.01184639152770127	-0.07557667908103327
0.01845128551389794	0.03223315829186219	0.1387090737011178	0.01843984788905782
0.02140335851564363	0.01132547291772422	0.02273346514440289	0.01187188479156274
0.007104164396934939	-0.01632020223811567	-0.05530124590062672	0.0005924730653058714
0.03123501732072596	-0.01315500003143853	0.1347180940136298	0.02060068307330324
0.05513801420705373	0.02123135890460201	0.04859428147013178	0.002789671390893652
0.04676736531702373	0.04437274182851606	0.0873260256480939	0.1185022234786787
0.06149717393304977	-0.002979886806858879	0.06804924558212648	0.1531019470153408
0.03819337740999035	-0.02859975470414579	0.02287175566295851	0.1052481474535069
-0.006913127304600361	-0.03571606492991721	-0.002650881749599427	0.003216635651364095
-0.03030534284090062	-0.0332250030350358	-0.02913398826590651	-0.01181899081385169
-0.04194375742544747	-0.01295588437003132	-0.005576070585275861	-0.06393357196875785
0.005643895380910153	0.01790377547458434	-0.05915323111650974	-0.02140108221471867
-0.01586654959090351	0.07004599538704749	-0.003599080990458321	-0.02596030085848101
-0.005300812882888123	0.06696780870909361	-0.0169881245953506	-0.03720660633395969
0.009186988352108643	0.03531192090265523	-0.05193038765256438	0.1367173405400051
0.0204613310895997	0.02997662598607736	-0.08865462933662752	0.1095668838932629
0.02811173581647197	0.01473661799301157	-0.05506611712723046	0.09885956170650001
-0.01094508613972545	0.008714591003834118	-0.07059701945716136	0.08326060547657196
0.06228010620462929	0.02197359099703835	-0.09282054341585769	-0.02301650669819829
0.0665123395872015	-0.02348866722307418	-0.07771604468747408	-0.09091786754634544
0.0466682492842112	-0.04085559455908473	-0.09261522943087856	-0.08087270578003367
0.01238599184106045	-0.04329623516526581	-0.1170173967360565	-0.01249345495342417
-0.02629394590285438	-0.01707958868598929	-0.1103218166097489	0.02397730501868771
-0.03014678043041204	-0.01929331342539944	-0.1490997700735034	0.02317238167926719
-0.1137161039793085	-0.0007710795210657729	-0.1082800357542644	0.09438401609199708
-0.120159988341653	-0.01387065750928742	0.0345754389011434	0.2412958432605197
-0.1751365091847194	-0.009960173091394544	0.2487314997277805	0.3350627904747898
-0.07477401188732853	-0.01735394083226248	0.02887648216225277	0.1665734591667621
-0.0993529721138154	-0.02202990306813398	-0.07656600628335973	-0.09361629126188852
-0.07372711397078703	0.004132314094484347	-0.01268175445624298	-0.1988692010706118
-0.04883435028572224	0.02540591880847626	0.02633178663478616	-0.1658494945530375
-0.02686941375180198	-0.004224610821984719	-0.09000776206789635	0.01586121711691028
0.06560268793740101	-0.0161648007485124	-0.1523224440083222	0.1325545478196287
0.05539286019592586	-0.00551617540553899	-0.2158594972909273	0.214410787576313
0.05163498079256867	-0.01446445053490469	-0.197186210089167	0.215381022526716
0.06392540036465207	0.008144491498619979	-0.03482808478787924	-0.03807861108989574
0.09694846539897153	-0.002147404840926103	0.04697972233392661	-0.1890018685773321
0.09042075146193351	0.003627582972140464	0.1967090840035294	-0.4380202491045036
0.02941727710548778	-0.004105514133328938	0.2611237948605759	-0.3042721303541821
-0.04211891361256578	-0.008077678898270954	0.2272398616959463	-0.1816591611957168
-0.023859079044357	-0.0007423447569437006	0.2391577348337833	-0.05466066159646418
-0.004031753314829746	-0.02458290101920382	0.1455012194451097	0.006735737516092181
0.01654278987022506	-0.002186235871778392	0.03801684871200146	0.008022296220066456
0.02224010890899989	0.009135434707158125	0.06003342951571131	0.03047120087828811
0.0003596262074079861	0.003653931711318827	0.1100002842766382	-0.0004737547010230164
0.002550878904599925	0.03056779722958061	-0.05694734491216985	-0.02350340909940799
0.0257971488595468	0.04838616552822841	-0.08124257595128394	-0.01569372167583517
0.02655734950838951	0.07861889589211515	-0.0256445527482496	-0.03250947948861056
-0.03450165919194267	0.05475770634746408	-0.006206434511493121	-0.01208259251171987
-0.03655992953294891	0.01363725828211222	0.01205991334644992	0.07027107433548635
-0.04049745394114378	-0.01946318776693151	0.105849325819354	0.05657002152043038
-0.0610515178557916	-0.01542651203363542	-0.005867297428220224	-0.01122102360833673
-0.04093260196573454	-0.03549858470357396	-0.08103282855837014	0.01444626212370176
0.02956966440790427	-0.01988192550220094	-0.06033875691514119	0.1051952051105848
0.05085055448471769	-0.02241219845807402	-0.08258004526967436	0.1004546583564685
0.006667413272874586	-0.03619412851812564	-0.02353379292101965	0.2427712318242438
0.01639612985722445	-0.02175154450950294	0.04389347490111514	0.1776761133147065
0.02136424470216906	-0.05650162723066732	0.0337819992391474	0.05798795114613394
0.03457934830162632	-0.08065007473050718	0.141980259628062	-0.09180728284988739
0.03092719461230724	-0.03077214229207891	-0.02252611256912646	-0.1277477364829061
0.03644213039935726	0.01353161351955526	-0.07303607099869086	-0.1424463973159835
0.03920712586259066	0.06250567599258708	-0.07536887979930357	-0.06933665546387313
0.02249484318402346	0.05527605384692789	-0.09944387297535313	-0.06552822891816529
-0.02200549680993365	0.06319671764012813	-0.06510440909007191	-0.1617468402701904
-0.009686743437047587	0.03358927249950387	0.01302506423192251	-0.1185314786781596
0.0113054718512224	0.008606230945185115	0.04997527427862479	-0.02134662659887192
0.03480203761460798	0.01078241539511622	0.09207920160896581	0.01687487363780298
0.0302877839082097	0.01140431524408868	0.1110260924839294	0.04042117560232458
0.02656984676637064	-0.01795310471251144	0.02073221803733574	0.007188713708365062
-0.02532679927198654	-0.03783674629318966	-0.02008603214131514	0.08665044236122195
-0.02648364483570707	-0.0370565050702519	-0.0456313568597739	0.09236567449288423
-0.008872516367064128	-0.04605819213052302	-0.1157314997191943	0.003194735179441299
0.004358866695423627	-0.06517697219880393	-0.0967773754443824	-0.05681970685601993
-0.005103998272357558	-0.1013952710883356	0.0526482971005558	-0.09857637552024114
-0.02333301928484586	-0.08209001469517802	0.04689940374225614	0.007044993166491622
-0.07303235402176855	-0.03167228483855121	-0.03688796321338875	0.03212958616895524
-0.04001866996198257	-0.02779839780178362	-0.1009499638767641	0.01707225747696389
-0.03171191925756432	0.01190626561432186	-0.06611710002963919	0.006760329294354508
-0.02177609877751111	0.04811042099956402	-0.1145100033602628	0.008103964900952046
0.01389321806285553	0.05074995185079854	-0.02389058406071896	0.01059975318238646
-0.008392688007232038	0.08056374672851734	-0.03744176949826752	0.04864149102971499
-0.009787910223471856	0.08497984289741865	-0.03557584575215485	0.04589444305162053
-0.001735976187649432	0.07902061442870324	-0.01104683069663115	0.02038418820769327
0.03654091901634308	0.06589916432575474	-0.01735884284344601	0.0356054784540733
-0.01692063701100255	-0.0187344147265077	0.1267308742082346	0.09929974434722257
-0.05289722565266013	-0.05941914421254145	0.07038868991752138	0.07377973232649333
-0.01033239367675449	-0.0727989864982965	0.01965600914659049	0.06789966868649933
0.03430473947775598	-0.05109374485423535	0.04739383103749625	0.01573627306337605
0.01905740370399221	-0.02862020111883321	0.02299443319742741	-0.06066199343261558
0.05338034662716178	0.009368329776415989	0.008275593276555021	-0.09065040374530249
0.06512378511299147	0.08478372655867825	0.01436119054166667	-0.08163188438388955
0.05662151806119822	0.02256032490044222	-0.01167207820046315	-0.03784240767539213
0.03457913656779525	0.01361712539161495	-0.05799854878201782	0.03012615820849183
0.004917177781187476	0.05442680984888137	-0.07071932631545209	0.1202619906871884
-0.0901111376513439	0.1124559379994333	0.1176571342446553	-0.07294629651229718
-0.094345190845771	0.1523252214046695	0.09915455055032374	-0.01771479856934479
-0.02235433352362877	0.05871213507765009	0.05169669234688519	0.01486123403317923
-0.02198341899973438	-0.03108865476806581	0.08932884904919859	0.01477630950960774
-0.05039354403501312	-0.07565848947634553	0.01800101035318852	-0.03888515485322541
-0.033931827535429	-0.09135368059534306	0.007836819026840709	0.00858641550238505
-0.02857005129496117	-0.08780856683839092	-0.01274515830984577	0.01682907332533024
-0.02510811024539793	-0.06278735816581774	-0.006996930048339329	-0.002853210681238094
-0.02497663727990553	-0.04803343224093763	-0.03168114091905518	-0.09145208850277242
-0.01200977139539864	-0.06761561257144694	0.04106542376594372	-0.04529759611606474
0.04609987625327707	-0.03855559451050745	0.03034562512591758	-0.001421073337716116
0.04759147892490623	0.001932475199232376	0.03639661764237277	-0.02432860125089492
0.05224621470736526	0.01035245096742737	-0.0005400223529514339	-0.04457663411645254
0.04072008579564665	0.01783834569590322	-0.02386402453656626	-0.02583708776993432
-0.001737593265561758	0.03278933766193259	-0.08411688358934011	-0.03958636485366753
-0.01396335288236999	-3.46333657983615e-05	-0.08022225258419308	-0.03317915297880156
-0.00977004600200276	-0.01031589376616634	-0.08686329229834822	-0.01435495527328586
-0.03073752629741988	-0.00444783935422718	-0.05496111708456146	0.01523031401792438
-0.006694266207549012	-0.008154335897152858	-0.01818598142493202	0.0009520855002504197
0.008490237174169961	-0.006814834018755269	0.07607724917613612	0.00567966498731923
0.05688472946139409	0.01387265252576146	0.09039715474017894	-0.02751798722863996
0.06898151638894638	0.046748161485075	0.1077154551868288	0.02462768329981819
0.09490836224741092	0.04412250037111225	0.04655754897094244	0.06128212844580618
0.02029314230464881	0.06848059859716034	0.1079210236633442	0.09693061777565712
0.03832969800208835	0.05370128604634689	0.09636923193774159	0.08225182557083502
0.006730003547418222	0.01567802839771732	0.001957648192173099	0.07301349231131622
-0.009971474068647969	0.01687577998522021	-0.04938504998547006	0.07549179448067277
-0.01848701581675212	0.01506558091033863	-0.02754918149957145	0.03287215049532632
-0.0470600615903322	-0.0009305260128089671	-0.04363865006782236	0.004701626755482518
-0.01987309640436748	0.006747260798208089	-0.022707218029843	0.02833394722599567
-0.004499946696540961	0.03767282607652372	-0.04682306887224751	-0.01908043113156459
-0.000950965836826257	0.06906918745347727	-0.04741830220037456	-0.02414665115945147
-0.01237196339826207	0.07570462837594708	-0.05604981828863526	0.02230605481622612
-0.01770882531739327	0.02629053046583541	-0.04688700209180037	0.0418459613129024
-0.01818184771224644	-0.01715249838416325	-0.05790326486566935	-0.01795143928795431
-0.02932059104003077	-0.04322402350122088	-0.01832717661888372	-0.01354378505650591
-0.01888059124807985	-0.0870039669657989	-0.07455595340876918	-0.05611135462204961
0.009068783304959147	-0.06525404901966934	-0.0644362092935994	-0.02255821971358783
0.02179777055053676	-0.05215636222985301	-0.00358461652763538	-0.06566653198121576
0.007579056698743907	-0.05928110997672497	0.03676873275952508	-0.06012990051908688
0.003131989059315359	-0.05831669354667302	0.03697384696064945	-0.09261883042069602
-0.01591336191001822	-0.06846649408751479	0.07142681031414742	-0.01564964414241784
-0.04000129967117798	-0.0412225053245415	0.07299639459769597	-0.004725521726517436
0.00111957433516921	-0.006338083089332626	0.01002401828437174	-0.01236988995873207
0.07986262366432521	-0.006861791533963716	-0.08923499885536793	-0.08004115944794059
0.1135248244117453	-0.03422789127658147	-0.1449932046715735	-0.1131307463391006
0.07029503019118608	-0.01492498944293125	-0.07576850823207029	-0.05995505592283256
-0.03715107164646381	0.003311224867808069	0.09598367382592954	0.006306110621584274
-0.05128492389619356	0.01855032963454815	0.04807581262713826	0.07521086167752231
-0.02608048977111215	0.04482480128090899	0.01142277221387458	0.2064522251992537
0.002656555647387531	0.04406046881184008	-0.01763854145344576	0.2257947212996842
-0.01263540607626878	0.01796874197570104	-0.05903362340281701	0.1628966061855284
-0.02814940032771981	-0.01676958617851685	-0.1997776066288966	-0.1189336445100313
-0.08429243251475166	-0.02790065279337098	-0.2542518873703052	-0.1841833482849401
-0.06440618232425345	-0.01586438715406233	-0.2570246040448209	-0.1799380273340452
0.03505610251421409	-0.01473137136378147	-0.1486951470129756	-0.08829992764535535
0.01526193038817667	-0.008487324591603739	0.4055421434836808	-0.04676026076159198
0.008908678314994296	-0.01236256472567072	0.3313578924298601	0.01640755594403501
0.003130111213155741	-0.003376685006479084	0.1695096671234146	0.05293664518042192
0.01586825498522543	0.0421871154962882	0.2249378466189254	0.04385152058157206
-0.01610154033392621	0.05303988057615497	0.2468666062743656	0.09284025390157966
-0.008960383501549292	0.005860916105764055	0.1915893879952137	0.08638633227899629
0.0005938204921477207	-0.03903020890946008	0.06321692697381158	0.007863117931076134
0.005800021077365033	-0.01803022616875015	0.02770959132426469	0.002193480757899558
-0.03643437781961037	0.01193904379519853	-0.01525452273831541	-0.02014675238802862
-0.01770123348074092	0.0411174304796228	-0.05007927957656583	-0.02599754104302201
0.02394960211563243	0.06774285186278539	-0.06301668939913729	0.08657730097913451
0.0279261413355123	0.06464569026059611	-0.03856670285684042	0.06216847946934093
0.02128552022203724	0.05117679316794321	-0.02325103425865498	-0.009946571450399979
-0.04331244066719313	0.006581058872296862	-0.0623414524525889	-0.06775316281873549
-0.0417967380905235	-0.02646169191386778	-0.2041897330676695	-0.1237251676749117
-0.004238666427559533	-0.03551116359318129	-0.2094167266400667	-0.08220533452817677
-0.02981540957210835	-0.04697132880102019	-0.2050629017529841	-0.03131434672253752
-0.05789884901448802	-0.02822379765731496	-0.09408756531031205	0.02803997332924751
0.03944160271275682	-0.00416307520818775	-0.02061481068881469	0.02582945465777454
0.03844444953672663	-0.005918229456969116	0.1061154752000608	0.031069461918544
0.02191428873394592	0.01083057506947842	0.01632136565315912	0.07186248586046025
0.01046918445631102	0.03307201203090586	0.01313336443316888	0.08860368611145605
-0.02477147293580616	0.01485976968105484	-0.02263750428366142	0.07505226328014294
-0.03432528693784377	0.001864790988632519	-0.1034090105986488	0.01984900949445217
-0.02792547885471908	-5.744739466240645e-06	-0.1104560860005281	-1.380283438600326e-05
0.02662314888107113	-0.01056104251510035	-0.01602692459786488	0.03305989578631557
0.04985070304841945	-0.01465665600383909	0.1868540553331344	0.02316307806074968
0.05914597296019034	0.002803587081159228	0.2600221623872075	-0.0372792703413259
0.03366500663863752	0.01035446957160908	0.1082997396962233	-0.01528683541202195
0.02333402008964003	0.00552212212978929	0.1128107407711541	0.03907079131662669
0.03490235205896915	0.008914619676736362	0.02542765505351038	0.1006868851548012
0.06835114714339349	-0.0008033035112659016	-0.02790724637448587	-0.0102772917073956
0.02644821415780497	-0.001763933747498099	-0.1149651578352462	0.003869170205234909
0.01529511758964382	0.0003070651361950351	-0.1811482058916818	0.05676829832979657
0.001401034233431829	-0.001898189748482751	-0.1120138147816974	0.01591076481534075
-0.04602259542751349	0.01262888758737636	0.1313526273537154	-0.01817325081074792
-0.01945610337582343	0.02622771462528422	0.06454706071838043	0.14604286039947
0.02023246519609312	0.01655402510284475	-0.001288094183008575	0.1951487693616559
-0.009835580104607338	-0.001569133223184236	-0.04621386426253665	0.05681342374894861
-0.05831498042250882	0.001385838974583333	-0.006392654733740731	-0.224412701010471
-0.06265363248458058	-0.03770392213115763	0.0307088471553338	-0.2896988403258087
-0.04539273320696799	-0.04036959642180848	-0.1341320876643189	-0.3169562474578073
-0.05012155786375896	-0.06303732633844672	-0.1349349371188793	-0.1929336891905783
-0.0147747497685392	-0.0575669908401164	-0.1123828997672857	-0.03372471990705726
0.04280669420773678	-0.007356753860541992	-0.169577825632662	0.02750066449741854
0.03722915250576778	-0.008039898299859849	-0.07011186441743768	0.0205478248386917
0.04335541819822341	0.01103170317523236	0.2524117291395621	0.0263688614398518
0.009424889992598356	0.02011211798130353	0.2423888096673901	-0.0448951405129391
-0.02116017164554547	0.01573434903468906	0.1301982318042469	0.0275484432691252
-0.0163427646890547	0.01069653285451515	0.09233708541019725	0.09154033270989267
-0.002102330477856319	-0.01094196530683374	0.06247773333350146	0.04508169002750451
-0.02668136954187791	-0.01145973932182654	0.154310204312634	-0.0771206215788896
-0.03840529866421539	0.003125622164284639	0.03389384103785486	-0.1034368297223586
-0.02886161701142027	-0.007442286740531183	-0.0259073515997099	-0.07526941278055954
0.004664003018109552	-0.07090753961947756	-0.02858918862987481	-0.03166747712992447
0.008609454939966579	-0.05650537438276848	0.006692991316649612	0.01380972843601912
0.005317999147076331	-0.03074906894082787	0.09232009926350657	0.02631573313238876
0.001763411947110794	0.03875701298286324	0.08573459913071167	0.03288916522278586
-0.0210964635888646	0.04089185918727147	-0.04461901798622894	0.0170058784516133
-0.004133667511944933	0.03996078530794898	-0.1041580347044098	0.01227332245672695
0.005535297575334407	0.02554607621789691	-0.1140052812344029	0.0129519916235357
-0.0142742742029527	0.02050491564139596	-0.119885265782528	0.001549554374237104
-0.01913163476516969	0.005851942957953021	-0.08436357269933538	0.09260072724260239
-0.03104904537652452	-0.02051598770751073	0.1181470462632076	0.006445142824568964
-0.01171678855538155	-0.01621380872598187	0.1686934507986954	0.08062247554693956
0.01873544681442817	0.007916256722611646	-0.03902522836720831	0.0221797489283161
0.01879792801279562	0.02087614260595344	-0.08463199070295614	0.03923391561753132
0.0414461441785643	0.03848824315889039	-0.1483598512119725	0.08626025937718997
0.0472364733798768	0.04768244723288616	-0.02742827366900166	0.07697420388778656
0.06025761338117202	0.02219453374183025	0.09229214859305017	0.006686860182108062
0.02733459456287801	0.01832804582160685	0.1486616162322601	-0.02632804169583745
0.0572607623512183	0.01920187829076101	0.03539183730445632	0.02913299836763216
0.04735906249675908	0.03262967099949617	-0.06892731277556727	0.05132095065702797
0.001996297816782841	-0.01089822435193314	-0.07170502056520719	0.01796442859412494
0.03384655573912906	-0.04010021443731924	-0.03371615259847841	0.02953505172987132
-0.01435911022850855	-0.038689400990195	-0.08847145722483241	0.005574341533954503
-0.0551631952115115	-0.02427241236506721	0.02799278055754202	0.01867328726841879
-0.03423994193574655	0.01303691877364476	-0.00485956020919814	-0.01526524017209904
-0.02277679781302351	0.01427389041402913	-0.05867021187025463	0.02382572869286887
-0.02701186065130157	0.001056114240883664	-0.07909855227958855	0.05955814434326682
0.00440367267612387	0.01217654017969955	0.0132095746016019	0.0463186197789802
0.04932466638673515	0.001737189162352689	0.09090356571860365	0.05230831081463676
0.02705925524957557	-0.01527323896543854	-0.02471278796719211	0.158943338226706
0.01572201554298314	0.01919603469639105	-0.05653436058056092	0.1530477320895147
-0.02923371897607857	-0.002174033158748708	-0.06354365310975142	0.06034523656846585
0.0001703246019705471	-0.0008113120694578759	-0.03582393594903718	-0.199613408305171
0.04278430691303963	0.04485483834064273	-0.05853497251928187	-0.278660760459095
0.03161660995919527	0.03895267971965564	0.02766225624421515	-0.2255858960360855
0.008106411630698794	0.02803240331709824	0.195861107340788	-0.07841766564950886
-0.02205046366885604	0.03140644600364272	0.1553083577412979	-0.02887865129940403
-0.1105103395010445	0.01081618131384038	0.1687688793714115	-0.08346899765872204
-0.1053617110996554	0.0132477161329421	0.1292728970509142	-0.03953348459091051
0.0001922459050177041	0.003388298107546048	0.2013732034067443	0.08660848887200745
0.02665317065866589	-0.01940519472116305	-0.008913606301769081	0.1293238707898749
-0.001776871091983683	-0.01379921372810413	-0.1214695482761296	0.001357297115579346
0.005206304745148028	-0.003385793877639903	-0.09855673264960707	-0.03597924685631783
0.008708390337815161	0.008122918377397004	-0.07306946441624564	-0.03170093613319244
-0.002001458001028304	0.0002626059579738319	-0.04786742801271547	-0.06207864133668953
-0.03770715967712017	-0.03795894298755163	-0.06834167656848975	-0.01940100570319083
-0.05562384687446534	-0.03886468605144895	-0.06002538669375057	0.1490819276362357
-0.03942612086611539	-0.04213682069775914	-0.02552829135066877	0.219057923823308
0.002194743268289603	-0.02233383950674781	-0.07863727337660587	0.08187649949241579
0.008449319217137072	-0.009497073894448026	-0.1076454160597354	-0.09339147215810897
0.04988013081065087	0.01514200957402223	-0.09257726103391103	-0.3002047494252731
0.05419620331634276	0.02217129622486031	-0.06798502991694408	-0.170786845080266
0.03839803128109455	0.04034000257932207	-0.03592560193045485	0.03212934502978355
0.08796097896965767	0.005720819379581138	-0.02904956028108505	-0.009921761685837967
0.08384615473182611	-0.01018081157214045	-0.03831961455299609	-0.1209868066674059
0.01922066653656417	-0.03156106192807707	-0.02084086325208095	-0.1114314825732982
-0.01040068628015886	-0.04481247700760897	0.0221254037794609	-0.03074045232952868
0.003770496662138114	-0.07483019727261722	-0.0009959743354704485	0.07666287008928972
0.01294660605863978	-0.05787531722205331	0.04368249077683094	0.05668550543833817
-0.06398193697925141	-0.02596193739493333	0.04279147435111412	0.04723612143200146
-0.04925588854460175	-0.03665352866476614	-0.0002496009410232454	0.003451257626294798
-0.01287816951302221	-0.01065049828922841	-0.04698466384555422	-0.04810093730346124
-0.03584202111570732	0.03568270446634748	-0.05226528612654977	-0.004497778156415454
-0.03868849187914789	0.05027728613036227	-0.05706782882013512	0.02541249973764645
-0.04551201058927268	0.05148597452696771	-0.02582534388798016	0.08423996505363507
-0.05887630775244939	0.0284245999468887	0.04991237425323659	0.1052501185083613
-0.05936271090651791	0.0013275036351718	0.02800115809257312	0.06521206340412974
-0.01812093698206362	0.003987449294865418	-0.05954880482491719	0.06469741774184483
0.03412570533813406	0.006169307516474811	-0.09261253489191426	0.01156652388508887
0.0116852345809356	-0.008591990148324355	-0.06855833569741955	0.009795414714853833
-0.01237966581358835	-0.02153164767973836	0.1232479093436209	0.06164895170685274
0.01187248889432378	-0.03937505454114753	0.1864460802384895	0.04531080491403996
0.05340206950385007	-0.05452830605137324	0.2382952238283363	0.004932650347211972
0.04471638954658944	-0.05685515925743645	0.05407128472692725	-0.1003827600957836
-0.01335087103980569	-0.05221184819214471	0.03229776607019334	-0.1464510225646878
0.01351036028486486	-0.03830315777688528	0.07744299357434715	-0.05625698281709232
-0.0117206393475674	0.01493236302956466	0.03415398177040204	0.06492124312375212
-0.03575456724636998	0.02672761406358595	-0.02699816384098991	0.03650564501123214
-0.0412875154882463	0.0160844671493588	-0.07968037699843762	0.03033561054449177
-0.01758072191290518	0.002484098530603136	-0.1110764245712576	0.02657860647773614
0.04330274951730631	0.003660326563719714	-0.1039939156348953	-0.01020347206149229
0.02389712550661802	0.03793945267601535	-0.1319726072793846	-0.06510885380535611
0.03164354862282856	0.04929793471596874	-0.07803916833466026	-0.0844370157776866
-0.008905378493989079	0.03474314944373189	0.1147839813829676	-0.05919965279898354
-0.04490920964436976	0.04302022116941045	0.2607434767762896	-0.05488114944735113
-0.01613870240174281	0.05768551388329254	0.2243475099510261	-0.006612311184043694
-0.003991608504505291	0.03274950643973504	0.1884147288531631	0.05834104583728192
-0.006164767645051321	0.02355395523584543	0.07976348074563687	0.05259865231384796
0.02287542573060674	-0.001304512276512685	0.07431767795211387	0.07743033788741845
0.03858176358676864	-0.005431126863574604	0.0690024334431011	0.08866471385465956
0.009487979352532988	0.002393976922045593	-0.03762859622725628	0.0620152340252375
-0.009972567653657635	0.01739458493109484	-0.1749619042124955	0.04398339806202711
0.007019443784222807	0.02629820877256155	-0.2436490654237166	0.02567498170445309
0.03415483426742455	0.03987455038933271	-0.1862384447711878	0.02460010203010169
0.02837581085697991	0.04147629052097108	0.02396629573394068	0.01823090100840758
0.03333578542769232	0.02987846955174372	0.02327882455619175	0.1108687119394722
0.03263190218517228	0.04965320841142434	0.2840944375424642	0.4207536634349776
0.000522457459740402	0.01963019759809082	0.1924550943098446	0.3763374246830575
0.01813520488004134	-0.02891177818758338	0.002923467363344332	0.07584503660505224
0.06137878832866527	-0.05389219692682098	0.02122182891678869	-0.2985247020920835
0.03637479514983496	-0.08478425373504306	-0.007007024749545543	-0.5042603863879468
0.03772249512798546	-0.1793557785601783	-0.01723770415399668	-0.358366457260833
0.0470835760235588	-0.1611696145019986	-0.02624247725636956	-0.1574893389195816
0.05608841640940408	-0.005276675800774441	-0.03748237053487753	-0.1264243808965007
0.03596751788155939	0.05805771588440511	-0.05402260429138	-0.02972701186588234
-0.02704273884459695	0.0716448636064775	-0.05931768578955519	0.01632900900152472
-0.02361588753322608	0.09184806157999302	-0.02425399778929053	0.004816194760111057
-0.09134126684819377	0.07531990998741978	-0.03332174274166964	-0.01490554941799485
-0.04945340209454798	0.04662605939357743	-0.04681491238459407	-0.01111108908024832
-0.03619975596105202	0.02555991954766659	-0.05597669185527034	0.04947743605163187
-0.1239854170927593	-0.003369634923093228	-0.07489835391638587	0.06635212179306801
-0.07228611300606834	-0.01978282456966624	-0.1151148633451466	-0.0291302779790982
-0.01912100056553582	-0.02348170981188826	-0.1073926559494208	-0.03046063292036016
-0.02211192009064909	-0.04716070484200825	0.03058504844595341	0.07499616164916111
-0.05070432655686889	-0.06751924750240629	-0.04291747895736688	0.1324503147507834
-0.01415039288275194	-0.09767665134056312	-0.08586181202653409	0.1047305458429525
-0.008893009780003396	-0.04825513217439562	-0.1035544550573922	0.09122271963623733
-0.003425895120248325	0.00226690555364913	-0.1000849895298836	0.02975708299342484
-0.04342589052451511	-0.004956529188619337	-0.09987510047618356	0.06804968473528569
-0.00286272028934185	0.04682809200217357	0.09628462394377661	0.03115448641739242
0.06202988941340001	0.05022075371873835	0.1011728021886729	-0.05398470715751914
0.0782277214550707	0.02684716133220566	0.02252103873371099	-0.1229203262152733
0.0263961057102209	-0.005443934522487856	-0.005897469798551594	-0.1355354399227273
0.02828780903090677	0.005702048219143017	-0.02814861505782537	-0.03877571109529734
0.03710578837099026	0.03808134348918298	-0.01903620891600223	-0.03815498645155439
0.06327995350812979	0.03876559962608302	-0.01251155113459108	-0.1102504313402625
0.05361561191784445	0.02131396565372843	0.1285601330453771	-0.002996775169316184
0.03006245945664374	0.0270108109949484	0.07741115508090653	0.02311306160835396
0.01814916096277436	0.03467984104851128	0.09292636430907331	0.04167928584092727
0.01706817098904357	0.02577418961920377	0.06026427500364704	0.04627574474116392
0.03168140772381015	0.002778232099152668	0.01439924340539935	0.03427540041907715
-0.03780083567672751	-0.01202091230318425	-0.007880157175964509	0.08937811281351804
-0.04443077595450393	-0.003667083373197928	0.02733191575221527	0.1127259243752943
-0.03298295814465357	-0.0171157649282926	0.04648873616744296	0.07651259080961204
-0.04283053010361516	-0.03422990573593082	0.03701269502455747	-0.06428742679785911
-0.03644824545188746	-0.01101704084905332	0.01508412212020905	-0.097521291443914
-0.05110282455156302	-0.03427291573409422	0.0001918719827655882	-0.004302846182201
-0.06019173338672131	-0.08301276710323385	-0.000373114727901587	0.02516274680500664
-0.04638908520105917	-0.09175050232003668	-0.02242859896867209	-0.007228108425321587
0.01086912806155879	-0.04992922569562524	-0.07811735351174087	-0.07334989399221933
0.03090162125459212	-0.01976576483447904	-0.1334541349954814	-0.03966839526292482
0.03804505274924248	0.04185531682587787	-0.0867994387187752	0.04989780168607758
0.05205513963539203	0.04840750290399184	-0.0154086226944791	0.08609759414015432
0.03009801996984628	-0.02002033377272993	-0.009303131542427047	0.04189910148659575
0.02872488036734602	-0.03258943038344742	-0.009288161042373479	0.02192627249020407
0.0109716858583622	-0.01280535198531131	0.1408583221701874	0.03605059471411107
-0.0623510131275223	0.04736178792808467	0.05644424185786086	0.114143180108505
-0.01026667931906616	0.07778596634343067	0.01076467325864523	0.1516323718499029
0.0363988531818082	0.07533885226816443	-0.008395462030710904	0.02516693877781614
0.03215726960463192	0.04267197182823496	-0.007284180073317797	-0.1005694281836786
0.001135515279856617	0.04969184292664143	-0.0007160494293765965	-0.2072753723733708
-0.02105365830923635	0.02338480285638977	-0.008782987558318861	-0.1763691077692193
-0.021662575111728	0.005305569341477286	-0.03351229684965772	-0.1048658432507791
-0.01886888668118	0.02980224285130152	-0.06031654574845251	-0.01482530193028588
-0.05149776896758308	0.03328526928704621	-0.08443119035741116	-0.0009028881310301862
-0.04479935713127758	0.03343597424479244	-0.09244972005582872	-0.007295054653051821
-0.003141682565776682	-0.002613969999483455	-0.0565614511007031	-0.02887146967398279
-0.03003372208588929	-0.03567310685950027	0.04944632616686866	-0.02285052484424942
-0.01034546795562661	-0.02961711875021326	0.1082649765421271	-0.005725570768394032
-0.02862417441792385	-0.0437840061580016	0.1651193748496329	-0.02625108095702878
-0.03581853754978512	-0.06348916342431365	0.1195632719181831	-0.01082536848314788
-0.04393740829558945	-0.03998988078735458	0.02285464456057822	0.01636007265040714
-0.04434272659709679	-0.01193075813851614	-0.008496805118830723	0.002424904274479998
0.02029370668448019	0.007674772539247516	-0.03043736033180797	0.004746085879317298
0.05767019930003485	0.006149032250413205	-0.03958296233769112	0.004861227397904627
0.05250930718582478	0.0071878792347621	-0.03235396185004571	0.02373269684984225
0.004898521690837495	0.008319029592196282	-0.008659641136075669	0.05311643537876422
0.03054969458259176	0.01120943423616563	0.05265054934750611	-0.02212265201818906
0.03603566023218241	0.009338215741030676	0.08508175730554222	-0.03812712130589738
0.006683893119786279	-0.005958373590486545	0.02393747492490803	-0.006793777745372079
0.02062545939822152	-0.01024977412704704	-0.09119414991214211	0.01505200575390524
0.07501301977965094	0.01890324476108194	-0.1602227214841699	0.08381285840463297
0.05739214231348843	0.02607658557043738	-0.2019619452212875	0.078016630538739
0.01582713804396035	0.00295121637229306	0.0648392357652756	0.04918607550984162
0.01277218599555655	0.00592323857932321	0.08998399287824457	0.08686466418089654
-0.03213685799753359	-0.01174406230020323	0.1722657215903651	0.0444800903486243
-0.02980047156580831	-0.01438094378677943	0.222176709591454	0.002040520413134963
-0.001057171980628159	-0.01575741224901871	0.1454315530481028	-0.01699572199166124
0.01801333837332437	-0.03784744816743148	0.0535439672755803	0.002194949629694113
0.02411951306772122	-0.06218135340724987	-0.07099946763269693	0.1523283340665711
-0.007740313906911196	-0.03736745049238721	-0.01713128552416349	0.2850152400351004
0.01485613543123208	-0.05968691702888627	0.1238043744273264	0.1769694956089523
-0.002797122980523515	-0.09566040945139088	-0.01744097009919616	-0.04497123695380342
0.01167957113476073	-0.04486185799177156	-0.09797291683975304	-0.2686495436031281
0.03754883829190424	-0.02610057344204066	0.001666312505267683	-0.3172038105081244
0.03870638792849038	-0.006466439668233947	-0.1050240038017504	-0.1299396836852801
0.01545278574794482	0.02700891441480827	-0.08291330925026143	-0.063577587411996
-0.007136225636421148	0.02533945352705795	-0.06735017122725639	-0.03851452949746959
-0.04975470439727542	0.03343012181034255	-0.08016264306368935	-0.04322885507932774
-0.004488137225514987	0.05430127853515196	-0.06001300882417597	0.001452398951088832
0.01637192208062271	0.06868393517611245	-0.1124412608359955	-0.001110603820850295
-0.03028444825066837	0.06859665845237549	-0.01777267396383857	-0.01302796598612489
-0.02776070505158769	0.05643839941721132	0.312719354651751	0.04582389230008963
0.008631421002896027	0.04226879945171122	0.1821620651758107	0.02295741040595993
-0.02846789147688	-0.009908569832903816	0.02708956329586399	0.03136677950162656
0.009806973207861549	-0.07611485152691419	-0.02317503998197518	-0.01612907521524303
-0.008878912458050113	-0.06986317512259366	-0.03757269921086726	-0.01604566761933284
-0.0289212981258166	-0.04667986818200672	-0.0611164816398792	3.119933035872734e-06
-0.04432666448717171	0.01164338085523695	-0.1042500098719371	0.04488111627262858
0.002675240115144678	0.08515193382546375	-0.05420329220429972	0.08612260882882006
0.02679223370409201	0.112744897305904	-0.05403528139669689	0.02981203239452419
0.06077013880966892	0.04744254620139597	-0.06699666057694574	-0.08449273066189868
0.01576901848727857	-0.002722231090796084	0.006001599615943719	-0.06293973261205194
0.01524035937058461	-0.03215390417918122	0.07973225223945249	0.05903765815243775
-0.02428319855203443	-0.08399375154662561	0.00749457972371471	0.1188511282849128
-0.02703075908922065	-0.06689789665715105	-0.0162828557660138	0.1041211978628134
0.01117822827756271	-0.03844043943289745	-0.03704691854962457	0.04152717771701475
0.06102850055786387	0.003706764119671109	-0.008888965627108621	-0.03225742228490517
0.06734364395661915	0.0320648107756242	0.00104914192928278	-0.1426423837310581
0.04013881913714568	0.0413317913847361	-0.05656155992811563	-0.09389834567995313
-0.01500083812052062	0.0618765207715254	-0.1245372278977947	0.005235844419535221
-0.13123032731886	0.02893643085880044	-0.1321257670547278	0.03180124734171878
-0.06198402702894373	0.02923606997991417	-0.1582076715113279	0.11337728350545
-0.08603659701323949	0.01634991917855465	-0.1168503585826277	0.05258795227199883
-0.04903515136268295	0.01061850044374707	0.07911009417566438	-0.0001878456743357366
-0.0004882198320714317	0.03366213222693097	0.200087593510853	-0.1524286344583299
0.01509014617669512	0.004602712704311312	0.1489313311506605	-0.1654080451032081
0.004860936458446538	-0.006556757422676252	0.1380934407284559	-0.08227335710871238
-0.04968239421506373	-0.001523906279742032	-0.008850116956029877	-0.05429557223141032
-0.00453955950926538	0.004679569115749467	-0.0383435834044259	-0.03839082505840694
0.02116104224235382	-0.007076406347638501	-0.09797125137800584	0.0185844166921341
0.02758378739176843	-0.02063338728032967	-0.02904152101239457	0.05012762649339534
-0.02187100103667333	-0.04183611392167245	0.0456919554652118	0.04674214577778445
0.001141982314820399	-0.01931232260694376	0.00206778530274055	0.05972056232633553
0.02343482283604524	0.0147593865134409	0.009764577786569887	0.0291888547867551
0.04688125816361041	0.02804792239209993	0.009188359621653382	0.1318333413796666
-0.05154041240979181	-0.02404697012017316	-0.03381282951303179	0.07658052115043443
-0.06958026294023634	-0.02462346261496439	-0.05880349745175746	-0.01927460612932432
-0.02961452320050395	-0.01478168643027969	-0.0403042659508465	-0.0812893333605039
-0.003396523013696658	0.007563610396141045	-0.006508012586470499	-0.06905544991468783
-0.007436745024648833	0.004968642356645144	0.1005970135478305	-0.1118672037836532
-0.04618451404029845	-0.003350319569756476	0.02222758898137344	-0.03417949849673686
-0.02473264099045898	0.01291448945045521	0.1890571791246128	0.08611854315831759
0.02399296946995164	0.02123202174162052	0.09867640088775305	0.09339281172861491
0.07845396080357731	0.01615391597715971	0.02637290433774989	0.05218412903207712
0.03768774409827301	0.0009289114687785355	0.003643001488311476	-0.02158972011231
-0.02131611322201541	-0.002559224326721011	0.002199488585890543	-0.08345461930575553
0.0189286394969001	0.01526206220391437	-0.09574807987750444	-0.09710347186704341
0.04299265040085808	0.007848102506648854	-0.136033226622935	-0.05051274505138433
0.07162926115698158	0.01060497385104586	-0.1523513855543042	-0.03807366665967041
0.06161082043387696	-0.003720259359385081	-0.2582840578741589	-0.04463643910477835
0.02294633011607971	-0.01189967151057435	-0.186207360654334	-0.03514359759295757
0.02524930951915994	-0.01891129228642162	0.2682473305318428	0.0742241851359918
-0.003767086502183994	-0.01620222650696562	0.2174348469256151	0.09669561377616809
-0.05071427784565021	-0.01945933731291258	0.3250604892509024	0.08359294914752204
-0.06024100202354071	-0.01608853155835347	0.3007356524921462	0.1290940634772055
0.008300144372726621	0.02028490342694191	0.1105436837737372	0.1080018308852118
0.03366333307502138	-0.03574818555782589	0.04521546237429309	0.08570765700268217
0.008774868736398093	-0.09130361352641039	-0.01558834118558232	0.1018085823165126
0.02917346733221093	-0.07256625311192952	-0.04093338036264298	0.04529221986475337
0.04669275666068524	-0.04454132915864741	-0.06244208616848633	-0.02213918530692113
0.02811577269985898	-0.08625586981304696	-0.05479243881748536	-0.08017317529442342
-0.01632739941688479	-0.05335487297898131	-0.07346409429451896	-0.03608080213085432
0.02144408494299216	-0.001082404220911853	-0.01076914368128108	-0.06333625064731375
0.02201556480290314	0.01315467156246896	0.07413349062795888	0.009830157167772573
-0.02000070024839574	0.03088497681189895	-0.01393772492422824	-0.02106465148922246
-0.0175058168653553	0.01751613576391795	-0.09067651961351722	-0.0557965056406684
-0.025872027222885	0.02919818265960899	-0.0985274977706854	-0.04253560116791162
-0.005876176344612719	0.06835765636133893	-0.1167003480216045	-0.043612580742587
-0.004025767957363614	0.04773693397901263	-0.04305664302130337	-0.02762979708509224
-0.01552065351188478	0.01575412962511238	0.02409357512474197	0.02699734023239381
-0.01521059090434351	0.01971653872526148	0.006067457508479208	0.0378190035436642
-0.005601849697834413	0.05883799408153925	-0.06348063808277382	0.08025022494103773
-0.03007263888680827	0.06573434256643634	-0.1070785223828143	0.1287864478743613
-0.03381510778991995	0.07062239719576115	-0.1115579981451508	0.02719477862846948
-0.07748863806915555	0.01344276659673069	-0.09121153707867592	-0.01203826683092914
-0.06244389763348551	-0.04027133534072373	0.03258395653136478	-0.01603099627115776
0.03426900758383975	-0.02586822426878767	0.2426516246404715	0.07798157590065288
0.07282656264293938	0.01643951050995383	0.2919779373450855	0.0831135790810608
0.008133669327480858	0.02599947208654983	0.004238720774487479	-0.1587578876610644
-0.01663979124621795	0.01052544189628401	-0.1118199160854979	-0.1776916196529343
-0.01820635809615144	-0.02212311994809137	-0.1453666498901138	-0.126474321772952
0.008590758106473554	-0.03158913834247454	-0.2285507231428466	-0.03246783070604885
0.0321851845980714	-0.03186478064496739	-0.1170281251778023	0.01688891500340544
0.06383664667908083	0.0006432730181979446	-0.1469593348642174	-0.04850730590137647
0.0208966915204372	-0.007450221168182164	0.05966742042921087	-0.007578251314354629
-0.001158022021313061	-0.04175678363331751	0.1022757089172129	0.02134044527848558
0.02116369058875834	-0.05085550147446994	0.1458183523677557	-0.03206760647253991
0.00997051788094004	-0.0598697797572425	0.09127175341002604	-0.005235692543961581
-0.0739594856062023	-0.02724684270967314	0.0741412556439898	0.06606575043207021
-0.05550411933209294	0.02780957691162655	0.02207885606147866	0.03559067505214668
-0.01972576908686891	0.05074976536450041	0.006401543529408278	0.03331363931591196
0.008456524075951486	0.04539499940441456	0.02930805138649615	0.07611816336507497
0.006129990894944575	0.02546249892321333	0.01426045792874278	0.09534508189308664
0.02892436113888696	0.02764250420863022	0.0220943925701892	0.03192906885503925
0.01914060934020285	0.01932520216101575	0.03333645717540307	-0.01316710694999922
0.03390856134032177	-0.007501425514342431	-0.1267929301571685	-0.08995253020760158
0.0471612015383102	-0.05189644212272354	-0.1518603273302443	-0.1262919399773055
0.03220763918072406	-0.06244510224351175	-0.1219022336897091	-0.06943008473555572
0.04098382474656501	-0.04505135241078539	0.008391450064394256	-0.0256628087854728
0.04660508797122193	-0.01109745309470543	0.007506695604218915	-0.0494511291644644
0.03808373733586303	0.0257194652491875	0.171602900527166	-0.03874332901195218
0.02611173994909666	0.01484261305944487	0.1446812848882489	0.0658573688293321
-0.0276948514452833	0.002481241881954434	0.0754754523177736	0.1699994563839427
-0.007196151573506244	0.005390161396345135	0.03979188242712395	0.06287504796978279
-0.01761649576818998	0.01873584446102895	-0.008758427592575471	-0.06177620093641085
-0.1352475225692575	0.01797384058174628	0.0001389484754231818	-0.1257955670546476
-0.1418871600629099	0.02179017482849453	-0.03151107692040122	-0.007586113385840315
-0.05013530751954215	0.01248969287770852	-0.01011977024883128	-0.01521996402309114
0.001739342979457847	0.01668564645274032	-0.04563210240963427	0.03641252648809019
0.002624207390558853	0.006640360265996393	-0.09229653569798001	0.05526636118559364
-0.01853461094310276	-0.006265960335820199	-0.07219039873111725	0.005864109766472683
-0.009689406430533606	0.007550780825884082	-0.05635390923807098	-0.04778883831606782
0.01560729311007867	0.053555807840575	-0.01817485320946353	-0.07684463866269733
-0.009212425441210086	0.04494154773718512	0.02622981900059524	-0.07068179233542976
0.01508399702553044	0.05119328241653937	0.1104764093203361	-0.01270791104378968
0.03107507794669334	0.09107311541357714	-0.01357220625860727	0.05053294208426052
0.03466777766520569	0.1095647114862261	0.1138082295959681	0.05785225952351675
-0.009258125376133769	0.0973214687224353	0.1946234586458543	0.09427593626079531
-0.01985424589019613	0.04083890473160354	0.03285120606922208	0.1847150604177002
0.02239960649686334	-0.003260348705737741	-0.05326003366550086	0.1396952097986675
0.01631706616523721	-0.02459055831823468	-0.1134659636699837	-0.03411458905820408
0.03049192489827297	-0.06266475233913354	-0.09362405176276586	-0.1562738227258013
0.03523312416184345	-0.07310816163276772	-0.1002755777398145	-0.2615300582309517
0.03561375570148135	-0.07922377871000218	-0.07935105290273128	-0.157862318835069
-0.02063274444124508	-0.08319380611847814	-0.02771034785890812	0.09897111730929889
-0.05529686591662324	-0.08335268312561318	0.03287005256637766	0.1979029940409635
-0.05561082661711726	-0.06730800041515834	0.1412548128269408	0.1085300243869735
-0.03028996956344632	-0.03594107411188245	0.04172070600164701	0.02753252570004486
-0.02083361798688987	0.0003238005448626998	-0.05130690376814442	-0.02657261687745596
-0.008577181300111732	0.01425881257533186	-0.06920032652768035	-0.01618454670435818
0.05373190666548228	0.03976001804496258	0.0482289330065804	0.06640710808252603
0.09697445996651462	0.03023461443655597	0.06518106960569635	0.04731288684652019
0.06684421498168963	0.02284969178582748	-0.03559106967880346	-0.02531626611635892
0.001596812055880435	-0.01448431430303574	-0.04679718775988778	-0.05210798583073478
-0.0349016838233524	-0.02859498683090324	-0.07255118317007402	0.07762518722081979
-0.04602776819177824	-0.04081878224279182	-0.04998424777195253	0.07376834090916694
-0.02393717409506792	-0.0356884096531965	0.1571310894189095	-0.01842197540911103
-0.0008494603408066518	-0.04399922411346467	0.1027328040707269	-0.1257502967127427
0.02611203364529224	-0.0518013337897017	0.04473607251897264	-0.06402090500764106
0.02138591207346461	-0.08071628116792896	0.06411597050212089	-0.01766326950258422
-0.001980266113363596	-0.05704464026868645	0.02121285812941646	0.110577324403022
-0.007865056968659294	-0.001002655178599437	-0.07031701890701478	0.09977192340695876
0.01252642078757324	0.03045980936858241	-0.1657303115256057	0.0337874418464821
0.04970259689150208	0.05109663817860298	-0.182158116759155	-0.04612553975168492
0.04349369484554471	0.05327382599627878	-0.2020566182734635	-0.2362944106888457
0.02646887527654578	-0.0005435760720837141	-0.1123445375572962	-0.1963344309944799
-0.01141497141814305	-0.01205560193124104	-0.001854098318649785	-0.084584315370587
-0.02029591058039366	-0.03463422621954112	0.2235189184723012	-0.0613750756853272
-0.02888891636781926	-0.0315920695418507	0.22632809981063	-0.03107209409773868
-0.02709306416486448	-0.01288052047545217	0.08426364331161516	-0.01166924454592471
-0.03815133305295816	0.01617124350552021	-0.0231828735712393	0.004966066749931545
0.01479683888562865	-0.01690593700362215	-0.009381579594976961	0.004430193407873111
0.04303802496870565	-0.02270400239856423	0.04088098973047771	0.005180199599345849
0.04020769896390105	0.005297077576504924	-0.005675090468839749	0.01849159418543274
0.03086812609950586	0.03685128052002467	0.002919171048311617	0.08543804805279172
0.00932095060837688	0.07664012312003825	0.1164017147589274	0.1105305483415654
-0.007562149347593259	0.08731437456245902	0.02278685496774477	0.04386722994457101
-0.03662831683410414	0.02438250919310199	-0.07482362371320933	0.01205886826109177
-0.0770649756826771	0.003381515933245575	-0.1267255921209596	-0.1048088155520894
-0.04966390226569121	0.001081742660519068	-0.09985836935687466	-0.03282830440006548
0.002276865000511686	-0.0311546845115614	-0.0984531801299056	0.3190190944914679
0.02375798970979581	-0.02037197043539072	0.001940977465621164	0.3454943424442471
-0.06054601212505879	-0.02125212642616821	0.1450097467894076	0.1656287924843188
-0.02738819916652319	-0.0007088377524888029	0.155455641308002	-0.1414877278354412
-0.02166568037148451	0.007106567757487221	0.130420610367877	-0.2576098866237953
-0.06153776616583271	0.02139569710190416	0.07469724517693017	-0.2188154593785598
-0.001549583904472991	0.03422541097082369	-0.01415602656185817	-0.1127492100062027
-0.003560007788978955	0.03565866364234973	0.0427498680453734	-0.02645081660832736
-0.03460511547040507	0.01110087537713902	-0.02100651931715734	-0.02427645472269494
-0.01330211957940496	-0.06807950277903876	-0.123144716527877	-0.03430058805854077
0.001064234510489826	-0.09201699494946507	-0.1211139135855217	-0.03130440279874608
0.02190211476856375	-0.0661132030497818	0.07131734706922797	-0.005842513531450251
0.03186845778952295	0.0004700877774584431	0.07628965335276808	-0.008776485890695695
0.0451028216311806	0.08261463787303464	-0.08806613564499972	0.01224363458255478
0.04266205822359516	0.1115552027917599	0.1032342650022937	0.1290151271650854
0.01884444369024599	0.09947838515917484	0.06116157382163037	0.1019934678377377
0.01557997117214021	0.1270037002824661	-0.05417375284312409	0.08968712764753464
0.01184505261152664	0.1060227175658166	-0.0648493814130976	0.0820549218594462
-0.02355154772271497	0.07069693603642505	-0.03502166384037091	0.0645438500141407
-0.003793759416017424	0.05919398073434021	-0.07868984580014506	-0.002230896590928656
0.04062790768943063	0.02929568955705246	-0.146518610455409	-0.02155391084250629
0.0377487970298988	0.01093247682143804	-0.132916662492396	0.009808679697478589
0.02631413819125621	-0.02170234966338688	-0.06943908980634794	-0.03703165245060953
0.03812318294091969	-0.0464281200490546	-0.08714286835214316	-0.02077967732203505
-0.01435407656285352	-0.08803676127336406	-0.05240338669534003	-0.02856006406530043
-0.01413545532727079	-0.08524652729233512	-0.08243186602570557	-0.02080302090279476
-0.02296656996919984	-0.06866769355815167	0.1672980512250714	0.01316549300038138
-0.02564502248683247	-0.08115542761073785	0.4661431752612058	0.097206052409014
-0.05100558425990442	-0.09889082422003666	0.1769275790340274	0.08628681246401138
-0.05025024211211713	-0.1019378134781138	0.0464496722139859	0.02683530543530309
-0.006984981735934801	-0.08100204362269164	0.006783358392707052	-0.1046348452840051
0.02634646474463281	-0.05701169733155537	0.0009640589743970421	-0.1340280098324424
0.09472155894737957	0.003026064134939793	-0.01846692861059755	-0.06226019425319007
0.1125849791067394	0.02968044955880611	-0.0513208021453436	-0.01269823898693578
0.1147931687184839	0.02236495772862046	-0.04737694191962399	0.01383263999645158
0.02103615469161901	0.01276217779873742	-0.05130506623573041	0.01036381305763509
0.005179156075765804	0.00972866286828598	-0.06137996322108695	-0.006364679501115086
-0.0001806751134889439	0.01533620818756035	-0.1071153194057438	-0.0331557291560116
-0.07474721038430795	0.01121536726017655	-0.0785575310109875	0.02929218996529025
-0.0857571072932944	0.01021908231035428	-0.06720243941263528	0.1055378943178654
-0.1262545374182639	-0.005553591433224254	-0.02246002891569355	0.110680206807325
-0.04237628846697224	-0.00156612438844061	0.1168020172804928	0.1337414988638584
-0.02841481809839428	-0.01140436991153379	0.02757805796072291	-0.0008902300378314583
-0.0414028628729456	-0.02721584211180912	-0.0077250964213317	-0.04053924631550813
0.003887404951299544	-0.03105010800029794	-0.01514063734083592	-0.08626009756898353
0.02564607395823576	-0.004976255772987655	-8.413103591678201e-05	-0.1091101816820204
0.005173829318006686	0.02935218947152222	0.02321371542580969	-0.100770929607969
0.006120430994097583	0.05298224330415497	-0.02150278290501912	-0.05471343444848729
-0.00220305772879366	0.0500105856579827	-0.05293166625631297	-0.04692340502797761
0.02295344815037162	0.05567336105699662	-0.07044445657295029	-0.05026820283307831
0.004361755760624137	0.06756863205164887	-0.02247040182972334	-0.02778126894173625
-0.01536922556618497	0.04941052464539113	0.03368468089593799	0.03998532663307594
-0.01149943881379625	0.02960092912492698	-0.001642093154035944	0.02000433546746719
0.003839059048390324	-0.01658615695573037	-0.000332121017228001	-0.01229603990994892
0.05693181704205046	-0.009835953685714509	0.06025076573716638	-0.04035562714235407
0.02632596281233589	-0.02539713903074385	-0.1182838957941563	0.104969304035072
0.02448219157279764	0.01998393111561294	-0.1205040314324366	-0.01339667879934952
0.0302605447888347	0.02417565590123018	-0.09586345776975994	-0.05346408960570584
-0.008943044176332635	0.01766164403177453	0.02941390448144995	-0.0384627200555537
-0.01493887493932653	0.0001495156416775668	0.1195548164705805	-0.0272622738360628
0.02304988277408727	-0.0193282629455739	0.2436948153949728	-0.001100635487432788
0.002704846891444895	-0.08051900216803912	0.1208663815445833	-0.007021342697834457
0.01326551922913386	-0.08719956081820676	0.02967080918510293	0.02336523809707691
-0.01313085554371703	-0.07363975911559213	0.02821994201581997	0.05059850989589434
-0.06817934621225338	-0.01831618047792925	-0.03138111121167735	-0.003336793196561533
-0.03933551224184779	-0.003580070068592529	-0.003587251306360283	-0.02735013609325181
-0.02381783390317057	0.02059424406626358	-0.08957563348066719	-0.1031192169895662
-0.0007293520243561913	0.03221104663356662	-0.121936262625212	-0.07277961806007052
0.02331077442279484	0.07336500734200141	-0.02507290923147334	-0.01532119153510226
-0.004274674446476827	0.07406780647767559	-0.1041068465264508	0.06661922085042214
-0.03944885369250578	0.001762682015266575	-0.01912920592755379	0.05742839415971249
-0.03165794420996607	-0.03458739218855252	0.1461391009982396	-0.02495680643280034
0.003198265488493257	-0.05172946919805014	0.1683172481354825	0.004658547199787696
-0.01338172737617825	-0.05878015487235407	0.03107718447361135	0.01209244432700272
-0.008056898273754142	-0.06010230152143681	-0.01794036706653282	0.0254732421888889
-0.01652292235420625	0.002177768278932481	0.02870490041686222	0.08409867151723022
0.01034182285860089	0.0366114509794935	0.1529496672740011	0.0904536697531886
0.002591737911719197	0.0643160969531073	0.06445612750413378	0.04638285235440206
0.006193386265862849	0.09938863595174015	-0.05514456853576906	-0.01538657151220447
0.02912529467673449	0.09626462492782234	-0.09290535515712955	-0.0504591969931717
0.04211077128521981	0.06109140877385935	0.02243944503639813	-0.02174438311734178
0.03679613091466158	0.03481353653454464	0.0798065253904006	-0.0219671123631298
0.0175364194442862	0.0009575164413590451	0.03189300779740604	-0.01187135480451207
0.0368153434227956	-0.0005061466434698356	-0.01958556434554923	-0.00716329850856891
0.02337645489830995	-0.01269821562649885	-0.0503222665498397	0.1465845446437513
0.008665890233284715	-0.01129887948765752	0.01983114587966766	0.1389909852925585
-0.02916980342826542	-0.0185036644893644	0.01796949399423704	0.08562728611247258
0.01125341408107916	-0.02383292668711209	-0.01575711588816748	0.08608208632218826
0.006303497500911425	-0.06148523053823226	-0.02942961092745528	0.07597744854721036
-0.01566485483407999	-0.06176643585200452	-0.07327995794103817	-0.01579008750226157
-0.03110771433999904	-0.05194353816553299	-0.0009847548793093842	-0.02870881683105064
-0.03523857292698629	-0.04890002587349031	-0.02063843588208852	-0.01408035117714727
-0.02461661154189443	-0.03201405972291129	-0.1092046325229565	-0.004715697074339752
0.01569168201198237	-0.002457556391777633	-0.1109671184906932	0.01444872109722154
0.06230795801488014	0.005008576339072014	0.1169865040565061	0.02103759669392798
0.04942632128380492	0.01066886285131291	0.1126634160598971	-0.02003321329222638
0.04271056856982807	0.03276630723330257	-0.01615721516420413	-0.07752400522827117
0.06701549195432403	0.006664709393625594	-0.01097054562139286	-0.0690103980685188
0.02498339802163963	-0.02816932348224424	-0.09265769781812355	-0.02745444641920165
0.0171829498214172	-0.009094177560615186	-0.1703721174139001	0.1133475352005995
0.007825632810672049	0.001142664488245229	-0.05492289439686586	0.1387159805523502
-0.00876548417834282	0.005778414460291909	0.07110725689578319	0.05934558815699603
-0.04496102024986977	0.02911935930191093	0.02025176086882572	-0.03175013521484892
-0.01194093292750508	0.04884211721129129	0.1372774421555624	-0.2297031981982146
-0.01675757614950894	0.03778609578600368	0.1358823783697684	-0.221767349891541
-0.0449721247055947	-0.00784608815439064	0.05185199353507494	-0.06652482485330566
-0.01776256740797777	-0.04087717783162823	-0.00627490619539106	0.1088928903975937
0.04263441113343439	-0.0447767571460992	-0.06693830581163274	0.1140077848290366
0.02450878167032092	-0.02535397989532769	-0.111568256969862	0.08650479554803579
-0.04167615508493117	-0.005946998302022437	-0.0918847556693754	-0.07379940446363766
-0.02432928507711349	0.008954892412340463	-0.09591260714151119	-0.202560017906247
-0.001484528478330624	-0.02236455982013947	-0.06054671260141786	-0.1018112844872565
0.04463799264412851	0.09368630831471336	0.01125011144039063	-0.001411882178291076
0.05578548617454497	0.09549642190469181	-0.01369098247984596	0.0125446009635913
0.05437098700882859	0.01776431820643708	0.004030175362517076	-0.01266877567321268
0.04005154050981848	-0.02554287924405042	0.02464114158870701	-0.04969047714283455
-0.02931207761446905	-0.05573024981586624	0.1003944421855817	-0.08916247869759794
-0.04354996287849571	-0.04539726484510378	0.03142840200177321	-0.112017012431805
-0.004725581007942761	-0.04171013421757649	-0.07672785092107985	-0.2277469976926425
0.002664910913573288	-0.03499013642126775	-0.134509103983013	-0.1197695990947406
-0.09866383615058563	-0.006461296752510779	-0.1375020705596156	0.05444710250025877
-0.1376201152134703	0.002121014430569571	-0.1694751032854668	0.1195844668591967
-0.09926414706461625	0.003791047192132437	0.09131740331626176	0.09353365808206771
-0.09445134719267827	-0.001142452706239872	0.2416694639682427	-0.02483548008336437
-0.04254858800482309	0.002353433349800897	0.1383435800547432	-0.0438289946572397
-0.01999562276511877	0.015318118107043	0.1834943797041033	-0.01477635279609974
0.02005284792356687	0.01223625225866586	0.1318750571671879	0.01036997561503134
0.04772711635012834	0.02160213749833212	0.01741020927214615	0.03476848546343778
0.06337855772423567	0.03526139415649783	-0.08109626940416075	0.06593825026187242
-0.01474483405414045	-0.002331476854327368	-0.08697600381399161	0.03339886817001985
-0.03024291198998308	-0.005573140791545783	-0.08641673380320133	0.04297143251661454
0.006163033800074328	-0.03125506651082921	-0.06536611172307083	0.08093456762509882
0.0006328251584636381	-0.04003210413554496	0.005945210394711737	0.1726135277384551
0.001019836435093652	-0.03439412642216028	0.1895938688341247	0.2094750671077076
-0.005343022092987872	-0.0358479875051203	0.07916099462798434	0.0130355335611953
0.008142570373041062	-0.05338419892052942	-0.01038141630705336	-0.1975226350990477
-0.01409794007362947	-0.06294049271309476	-0.03354216450259857	-0.1596139816136609
-0.01068741436077931	-0.05194027497341185	0.02217158163839665	-0.01629361629126902
0.004651042806791811	-0.03265640198471392	0.06201473988906614	0.1427254111282458
0.02939671464743135	0.02927989861820885	0.03063969203476604	0.05640305577606144
0.03185279642246876	0.03548133078049715	0.02895226978229956	0.0115638613175469
-0.05669958343310904	0.03199809274773113	0.01091544766958449	0.01633325610324111
-0.04606830370290941	0.04922911602876834	-0.01352862975231118	0.03400094986879668
-0.003909673880779929	0.05086693811143225	-0.09951606326518386	0.04142996322016382
0.04095665089458431	0.05816298996069643	-0.1506528582361606	0.03060036326597916
0.05195397788445846	0.06687666001593236	-0.2046856701217478	0.1361884516647011
0.0530498315988322	0.03722166270029888	-0.2219030225817499	0.2003043257755318
0.0740297267020914	0.03571197581033591	-0.08071662454382526	0.1382571431079862
0.02726934025800124	0.0401472355731606	0.1393080246460411	-0.02760044592348918
0.003328751307509152	0.04710504509186663	0.3735276002534124	-0.1207513301871894
0.01928079116481526	0.02360185023751015	0.1655668071574798	-0.198665005646558
0.03152024478027093	-0.001691707960868902	0.005643268811978675	-0.174119614553596
0.02164234612535305	-0.02380280335295785	0.03207157085697897	-0.07567256442712568
-0.008848819124830007	-0.002073501593759036	0.03738092120058386	0.01190425693288572
-0.05266414865636026	0.02001877523232663	0.01340828089001869	0.01628320014334139
-0.03085651587826114	0.01354605661825707	0.04655568783911414	-0.009235844041483301
0.08506738408371135	-0.04640496217771177	0.003189162900857403	0.000181521461309045
0.09141496094631674	-0.08038621521396223	-0.04219715661985023	0.01535897281309933
0.06033906090298759	-0.06234924753496503	-0.09956153211902678	0.04307055767027265
0.0584957751614453	-0.02790721047653929	-0.1348748805040313	0.05155982679394205
-0.01945370139878099	-0.02103013910860055	-0.1235602309883718	0.02526833601593035
-0.0665999916873147	-0.0001826788023164422	0.02490718507107923	-0.002131249964994281
-0.05096426273290981	0.004892494610061129	-0.03370831539158878	-0.007841099694642889
0.005113832699774321	0.02191245735799571	-0.0418037291970872	-0.06374784098083697
0.0437474673709035	0.03123185796257798	0.008082083751552656	-0.1296142339447125
-0.01750253670561009	-0.03142182885871322	0.1056136779001466	-0.04454785762987656
-0.02507309159914834	0.02193475687501629	0.0551969320865623	0.02085506881131927
-0.05582074974020498	0.08450323143931764	0.02269625952007714	0.01080397084542698
-0.04458910969448628	0.1352845673377714	-0.03500145591655561	0.002138638206297784
-0.02484093029584063	0.1298228630021049	-0.03807425331887333	0.01533891934872274
-0.01204753141306781	0.08064965075905874	-0.03211926642099504	-0.01705336626535074
0.0173630334750099	0.02599500625324474	-0.07679889092546986	-0.00885697253704
0.04387249013773897	-0.01964909403614173	-0.07292655345629291	0.0373849455727662
0.03023245541163972	-0.03992813068323948	0.006525043995736612	0.01361561330376585
0.0167777534459037	-0.03790981466972834	0.03525668229425338	-0.003867649526563277
-0.05847129284981736	-0.03522153165827606	-0.05215115665780214	-0.02393453421714777
-0.06594034036627106	-0.06272798882633923	-0.05585505121658312	-0.02852869282299611
-0.05114815758982888	-0.0625016257605087	0.08697309691817234	-0.009872451644294082
-0.01051202939574479	-0.0527555517104168	-0.01157075722445359	0.05067935380247972
-0.02828690670428292	-0.05262911533882568	0.1334978829792185	0.04884377166208902
-0.03855164963137776	-0.04292153995462195	0.08431236092048502	-0.03663100339347315
-0.002901321597249323	-0.02842380986591739	0.06695014405885254	-0.08060602055012109
0.02251772542841562	-0.03212393077025741	0.1377118712231871	-0.01014468750775897
-0.001688666950000349	-0.0262793855359834	0.0362072404074807	0.06686965338838521
-0.03279278364065049	-0.02979555550735285	-0.01322880387045266	0.06726436265613674
-0.04715803684345533	-0.07026270012285898	-0.04160836380874563	0.1461042068847024
-0.03076183552913722	-0.08756361653016854	-0.0816612085672067	0.1307117751113749
0.05369462701273598	-0.06638048112691415	-0.1352740590506407	0.0467503872002468
0.1218132039591404	-0.04526315309669243	-0.1067516427926479	-0.04547303906776188
0.05696981344829774	0.000745022280477821	-0.1664900468586092	-0.1050804932210593
0.05259368188101818	0.0356880611053008	-0.1835715957590708	-0.09080459286947834
0.04439437356502075	0.04292684004340371	-0.1247783024747653	-0.004366612798993259
0.01003927040256445	0.004397700739892848	-0.04619360625681589	0.009781644202037882
-0.01812797900686731	0.01169204976734302	0.1584796246013031	-0.02994945187586057
-0.02704226331270447	0.03636862630390474	0.3496123707666485	-0.02182143401558428
-0.002072064692230966	0.04290854334614749	0.197414377372829	0.07339355141371486
-0.0007940681136410313	0.03930514387741598	0.1080829348462323	0.1228372162963688
0.04239309530660609	0.05051190990229221	0.09645395062266356	0.1867284281332471
0.01552716918883357	0.04081991478293674	0.01038033921766345	0.09963735970831231
0.01146183969642697	0.02937024557548924	-0.008058296233932744	-0.09775914229614632
0.01386658343299746	-0.003497470144635603	-0.01658601038078222	-0.2420018675082821
0.01331519100855653	0.008850425888525691	-0.02339442506263071	-0.1719990216077887
0.03678039551500608	0.01920278766646533	0.028061193648139	-0.04513032722241501
0.05225597805602263	0.03010063900474661	0.06939435821149269	-0.03211322457748271
0.05445087284749787	0.01838145379169955	0.012805022297849	-0.008912909254462637
0.0428349187904023	-0.009568178134745368	-0.1015726417238414	-0.01242794578701799
-0.03204195289930049	-0.04133865579631613	-0.1464265097342043	-0.02477029396715488
-0.06388953815202227	-0.00408442454808292	-0.1790224506272165	-0.03077042809240036
-0.02740546019557329	0.02961042231429169	-0.1392553178927921	-0.01504211816423436
-0.007258041481937634	0.0179938139356617	-0.02301654977035649	0.0009025807585568706
-0.01260730511833798	0.01206758005342162	0.2082230991936955	0.04484319221414779
-0.0203597833823083	0.03821171165126112	0.1155655065528711	0.01702415158244992
-0.03952693995419596	0.03702758276391455	0.1291212345190526	-0.001371382429866289
-0.06654461911336626	0.03204462921432344	0.06538638483511273	0.000937935773273571
-0.05635356085610759	0.01986073703962521	0.03558916246928722	-0.009626370511062941
-0.02137361118701367	0.01839150190628593	-0.05117266971860972	0.01010575851104769
-0.01538203477220154	0.01935154906961312	-0.08223437244800644	0.01780323368898277
-0.03385284504400114	-0.0288398925674134	-0.1226536832477582	0.01615750944226061
-0.05170636310524857	-0.03203130039166396	-0.08035677174233002	-0.001672737750748872
-0.05452633269099456	-0.03077902885444395	-0.03845941421018777	-0.08535232257701052
-0.0367372377891841	-0.0322312511032079	-0.09354058194877396	-0.09156181218150211
-0.01970006181237704	-0.06730659216611558	-0.1488159964511726	-0.03096655157430393
-0.02069893659944826	-0.094361762023496	0.111051112726094	0.1101171299699208
0.02443559169400937	-0.08961547813751998	0.1203123650024231	0.1512856626647459
0.04271597169772928	-0.09083647135833195	-0.02145906878836428	0.1371280722997437
0.1092006482869074	-0.02841801802910664	-0.05853727090355298	0.06313824336447131
0.08026649214061594	0.03601024262592129	-0.01554540226917234	-0.08405960060666685
0.06197865096319989	0.06141363316222685	0.01266482766983905	-0.00569445255087567
0.0009476456691072223	0.05233578934240212	-0.04047525523771273	0.1529114595169681
0.01909530337185607	0.04858546868350355	-0.09561685079482503	0.1153854476364704
-0.04901779300382649	0.005127493698298541	-0.199203145559885	-0.0785546135685373
-0.07394363706663933	0.01014461403858431	-0.2183375008598704	-0.1568007095702463
-0.003428230293575968	0.01103653341308599	-0.2339657312772107	-0.1819240574559896
0.007431473490128729	0.000104603086058495	0.0555131969676398	-0.1513622400235428
-0.07209590369546182	-0.008894292067203238	0.1046120395965179	-0.1128724043275969
-0.08874956307834314	0.003168167589451059	0.1231900052183114	-0.1290386180790701
-0.07191101928425743	-0.04090287520831295	0.2673779446914185	-0.09753438076140718
-0.04966500989845051	-0.04368493863979068	0.2329622045134682	-0.02648811606727444
-0.02890202764967752	-0.02304292287399438	0.3703286303637809	0.09562872077728796
0.03315877609107884	0.05128427371618888	0.1196454592551047	0.1745950080196498
0.05729645872676497	0.08362093311678187	0.006812041879875165	0.1121714130287814
0.08499064006259728	0.07685000898338479	-0.02263613282289681	0.06166143991393677
0.0387583604663958	0.01569311838627379	-0.01535330041495491	0.01395921857400407
-0.005383396129274278	-0.01838020325446939	0.04922122689081041	-0.103424786502361
0.02493644915534821	-0.03028386701689328	0.05694651624916965	-0.03421995324402413
-0.02472349995855526	-0.04821793640482332	-0.009883418198127932	0.03846713059572218
-0.04463027783270716	-0.03805620695387539	-0.09234552869200971	0.05190684318979324
0.002706755053183395	-0.01784841444908826	-0.09429285239149579	0.06565053537481277
0.004852688745782044	0.005926149862827407	-0.1214319415355127	0.1115910572369974
0.03307628735331251	0.01064393440665698	-0.07672721967770545	0.1400701770885831
0.01966825828304337	0.009232494467728062	0.2393539644781945	0.1396301766525233
-0.003381492409212566	-0.02235049916957948	0.07872296073693121	0.03392955915356648
-0.006626024249137429	-0.005255201939750567	-0.007505187750647273	-0.1067886472402329
0.03243426315617535	0.008495447806398082	-0.03731339066677301	-0.1536079930789807
0.05138599667254584	0.03283324042893494	-0.001759918935914033	-0.07044176225598063
0.04819284523371452	0.05992728475627155	0.01531996716631395	0.02238286576713382
0.02641974064058862	0.06060146767751375	0.02614060976243605	0.09401221589068023
0.02478187614443637	0.02793635415504787	0.05141574998312369	0.05451248283494169
0.02016618768233519	-0.0006784563601333156	-0.02926908790209315	-0.003174782590632578
-0.02842122521487943	-0.03545735000008898	-0.1034982548195106	-0.10270748118214
-0.04336762386319475	-0.07248375251053341	-0.1363917225351683	-0.1511082677804942
-0.03834805707568831	-0.05940046265546088	-0.1790197533806417	-0.02374510094623274
-0.01627843974539804	-0.03807896345817151	-0.1369939660994368	0.06476224369230567
0.02021085461402761	-0.003924081813091566	0.06216061705759065	0.03948944978740858
0.0205634021736067	0.005689499033304199	0.07076040214513196	0.008845175347394213
0.02571858998938109	-0.004414930219092334	0.008294885173934872	-0.03802124847737073
-0.006033030765409014	-0.000731804448679266	0.01853175815401936	-0.02035947020688941
-0.003026137411173067	0.006524365949147933	-0.005133507871828551	-0.04345103827200517
0.03005246548618323	0.0160240127322652	-0.07650833225395405	-0.07059145007437094
0.07644917883255473	0.009256929773593514	-0.09370012931562088	-0.04485479180290054
-0.0003708487489025274	0.001531148746005932	-0.1184968995992156	0.00470354479101086
-0.009207248046409516	0.02557026984802162	-0.08880709580624174	0.009663388458570151
0.02843779294284141	0.08539487426107309	-0.06793662964576969	0.01936328281166482
0.1057441564338091	0.07490955151721045	0.1678354661490708	0.06087516553223807
0.07265663565141615	0.03124936380661701	0.250540347689347	0.03332242267144813
0.02271899281182921	0.01746487775253043	0.2094140564481756	0.02721235324742855
-0.06121370947778086	0.03077720624578954	0.1745409358856574	0.05476464037601963
-0.01264546197393924	0.01464362750897113	-0.04500990670080256	0.03630290962949559
-0.04488998197311259	0.007394565316778829	-0.06637599621535514	0.03060126579608025
-0.04271580514539748	0.004203668126263711	-0.07504004529161937	0.03115423380787386
-0.02640495027805382	0.013579198971673	-0.1015432563434296	0.0859672933362854
-0.01189102629974241	0.04538373666774202	-0.05340709221608255	0.168946370732255
-0.006319934124869623	0.03157471311706748	-0.09733273886551026	0.1337547898339747
0.01481918442427291	-0.003405220354986434	-0.004536583892851333	0.03651797599742437
0.008823768432694053	-0.04703150111270307	0.04547027134762323	-0.08844598376332748
-0.036419864307236	-0.06887450656956089	0.08477801805468674	-0.07780780580688709
0.006462926125019044	-0.03171476554261492	0.08151069985659279	-0.05253022169550155
0.04598888033520618	-0.008209176799419781	0.07905480739438966	-0.1428238494322733
0.03270730997354887	0.001778516708554314	-0.01839023024999548	-0.1068619703916317
-0.04387076311579595	-0.01229567830163724	-0.01362708601359483	-0.007563787423690824
-0.1514944208400084	-0.0557028118355721	-0.03940320140126666	0.01804181753196871
-0.05766436678859939	-0.02880873194982236	-0.0524349035786672	-0.03569725621973472
-0.03131670328216378	-0.05017631070473646	-0.09996429068757635	-0.03984732512407329
-0.02810925655579889	-0.04706766075259777	-0.1125512862505624	-0.03536229339222537
-0.01069796384104002	-0.02257047213109846	-0.1526428020013669	-0.04832641448221973
-0.0007513033263672033	-0.00281185414866506	-0.001670249959873098	-0.0406827889397724
0.01606705196613958	-0.003756825208361026	-0.1601725137568798	-0.01645982932971547
0.02791001245672651	-0.02499639255060307	-0.08397809512199192	0.07169775928853998
0.03113922860276665	-0.01590935834499679	0.02291145022640958	0.1190964754995601
0.002040022026541759	-0.02966934815601552	0.1643407386185406	0.09047789497881674
0.01142098432088464	-0.03566844701817019	0.3428447922109126	0.03662268071811402
0.00203264828545006	-0.009906413858460866	0.1909601476214166	0.01781204596667315
0.002298591874759103	-0.01078041074229464	0.1377574331918482	0.05194758257766178
-0.08527781381545628	-0.00814717565231542	0.0157135274622275	-0.03718523404735651
-0.0288282195475762	0.004121130669833271	0.004591079211925383	-0.07544167518913229
0.00803058940649116	0.01405978047581659	0.01002783184123678	-0.09569551630545638
0.0371064240904561	0.02353444700682987	-0.032161587397395	-0.03666534166974428
0.01052738443645971	0.04883245533904051	-0.1218782979228461	0.06768036925251704
0.02165434554064221	0.06891520881837584	-0.1826433412913854	0.09417244472986924
0.02331200529322719	0.06399469636097201	-0.1541217574692603	0.03157016887776867
-0.001112926448088673	0.04441374470944669	-0.1670835943846019	0.004853987180890933
-0.02182350162528132	0.02763885607788721	-0.08456363735111271	0.04317256427224507
0.008126658054278521	0.01294086750213015	0.01831397777386966	-0.01362288240774154
0.01751657501658729	-0.01566901782839192	0.3324025267215313	-0.07187183952457335
-0.00526493912010461	-0.06800137636756759	0.1661163245627839	-0.1769746211261106
0.01579141931165549	-0.02336217095013408	0.0281867238486164	-0.2406089670249828
0.00616444136086889	-0.02821500524837975	0.0519153510907532	0.01882888433925419
-0.01071570024371228	-0.0006948191864647837	0.1082766517823518	0.1617025198687575
0.01811927110264461	0.02682372056384417	0.005538956663887299	0.03539525012655367
0.03655282469567948	0.0158940384186221	0.0001475736701984399	-0.1301619824554244
0.04175607156498626	-0.01151491722364847	-0.009296488237756324	-0.1308428755219751
-0.003242433203985894	-0.05776630695569632	-0.03090572996610854	-0.09533515717340027
-0.04503442231704815	-0.1057623557455094	-0.04684295830413472	-0.02297225473039137
-0.01193807032098503	-0.09912140063744969	-0.0262772182782366	0.009607876946961875
0.01327565754537966	-0.02823551293934607	-0.05586995621317232	0.005870592924701377
-0.007841885346454615	0.02310757370708714	-0.07029510512743399	0.01544486535034999
-0.001839895505987587	0.004728208311658597	-0.02881212456767997	0.008637016443927668
0.03320410797518999	0.01852973820962742	-0.04232179778520978	0.02993002332260125
0.02613389083001546	0.01134357102694528	-0.06702826854324011	0.04335428590314017
-0.008527086618969436	0.06668593690951516	-0.06718056419529669	0.01238308649901572
0.004061051718103075	0.0641534060254253	-0.09587917742458406	0.05269731214464526
0.01618037180765467	0.08311151936789574	-0.1018642540747724	0.07830620583352384
-0.03116156552857377	0.1213099267261704	0.03835399995183304	0.1366162753822981
-0.07888151006741553	0.1194232476136824	0.2098403189731004	0.1380541675195483
-0.06587751384507799	0.1195385482426047	0.1145665688251347	-0.04219269717437708
0.07022577035264148	0.06907886394476098	-0.01087903588490459	-0.1441027951434788
-0.03445135832617194	-0.01434193196698452	0.004815434108872587	-0.09080837852318528
-0.06778406423992175	-0.04161334170100131	0.05918617766430612	-0.02552745552859021
0.01725087984576106	-0.0474239050080082	-0.03298885539733802	-0.009512888978171699
-0.03478789859679031	-0.05418718743807471	-0.01580872604853393	0.03277509564664328
0.001704891821601928	-0.05568418899500945	-0.07743956951866042	0.1355255238618252
0.02575631966575946	-0.06061856934825538	0.004571013954908457	0.1796103686512763
0.01625792139345687	-0.08537971822759935	0.04539277632299089	0.1403260220530872
-0.01566417056399111	-0.08415269577610435	-0.04492092402416185	0.03137482033464815
-0.025048758837083	-0.0615790343287688	0.0005759977582562771	-0.06870044568674857
-0.04243834505560689	-0.02104924389885532	0.05803703743101656	-0.2109703471954966
-0.01857196140348098	0.02079241819967729	0.1856883084556546	-0.09867410561154442
-0.04209492470656648	0.003544736984462538	0.161663318041054	0.02511524869530029
0.02478169923460757	-0.004004951076749047	0.01037649029739341	-0.04372364707552947
0.02499522807117357	-0.01766806480573497	-0.06311669963171276	-0.06479893270742013
0.03875620152244068	-0.004390767916194063	-0.1873277744964626	-0.04724577701559136
0.05846464875029502	0.006488286247922782	-0.1886066675458244	0.04220050291990954
0.06776119736463511	0.01225313574835623	0.01354506457570304	0.08171922291255238
0.07332377923866507	0.01121828407166503	0.1050617213189081	0.1134577737506295
0.02824494786927963	-0.04254917803598498	-0.08286249364991741	0.1233785212501944
0.01486480780057743	-0.07177798928078624	-0.05618230979449861	0.1462474680062049
0.003305217127764709	-0.03821635297945516	0.0249513673220338	0.1370192359643232
-0.004111499716354357	-0.03179853806530281	0.1185444402990383	0.1181230413154334
-0.03022136894746261	-0.001415721205997892	-0.0225208016786882	-0.01942870733577567
-0.03745158486206791	0.004972448299105522	-0.0592527050817931	-0.1142830149752559
-0.08765445378949811	0.02420353919199109	0.08509682973150995	-0.2011951268855884
-0.1312295726077978	0.06146245585878995	0.06387625243297756	-0.1989555830883963
-0.04681738215521503	0.0646648080722827	0.06078590917434495	-0.1049008783698077
0.01285372591672772	0.04789928740466175	0.01040744539272139	-0.004244384215082882
0.05496461613245164	0.04094506902780976	0.01249822909786312	-0.02676966147425857
0.04093039318558395	0.03312292330394929	-0.04646123592085071	-0.0394831745671235
0.02846055294498524	0.03035948723494736	-0.08384587045998398	0.003637938765946671
0.02157479015453213	0.04205807641602282	-0.08638103968837174	0.05262237500736244
0.006533667895741105	0.05678370800786754	-0.06867780566786559	0.01312388642221983
0.02746512977637136	0.05286559980478095	0.0265598807543302	0.006434214605778463
0.03845924592468273	0.03233493550951736	-0.020636793748391	0.02189014242484447
0.0609032641812504	0.01676499635601375	-0.08136914529116093	-0.02954500632671374
0.1091805375941973	0.01343135176120505	-0.09692164943224485	-0.01681716912634615
0.04769805952734028	0.01317686022389766	-0.007856620458899307	0.05197603122032596
0.01709675741683764	-0.001655756527132889	0.08981453504432615	0.08344093929023456
0.03620387203409908	-0.02925707557586222	0.2235539720235534	0.1692729126761437
0.05818486480572582	-0.06056474300519175	0.03837991770181087	0.2292087072689551
0.02245786944979715	-0.07213190996498146	0.06340002304957762	0.173354934290931
-0.04998726671261038	-0.05570792039767078	0.01767950414101307	0.01636361679093062
-0.05605264329702756	-0.06275965281418519	0.106330651109462	-0.2488888041393582
-0.0121799104043606	-0.0334384876520389	0.07231116856602103	-0.3065110594027814
-0.04574087256128698	-0.01620644275351043	-0.04441035779317713	-0.1806574742292215
-0.07103009992309767	0.002582213636048985	-0.09761881321197545	-0.1349086444804255
-0.07862677856468248	0.03491251146240891	-0.1376360988453996	-0.09427833827462144
-0.08281643694499663	0.04199119428537595	-0.1859532648405421	-0.01190568219833272
-0.04821986777402091	0.03006252413431053	-0.2062752370337462	0.01279846460089297
0.03078052316118479	0.01836606552143315	-0.1470391092196749	0.02149974267691836
0.04881318360147056	-0.05219628707360275	0.1133046398517591	0.07161154795175619
0.05415476112922381	-0.0640705852193857	0.1909753625468283	0.008168073203653373
0.06650825594202457	-0.0324244392169877	0.06968628393080475	0.07236758251815988
0.04835740596173239	0.01723827478940328	0.0867144801070905	0.05142768706117472
0.03048263576449018	0.01642744766097383	0.06061224188276562	0.03390710764585478
0.05336183604384829	0.03831250012793531	0.0650891287468298	0.1047186216352553
0.05180381101207698	0.03225395747593966	0.03820173725257523	0.1210801659542604
0.06741000714702963	0.04561979094630238	-0.004515109172662967	0.08402427024213306
0.04780187697679458	0.003930427765791109	-0.03729622023249762	-0.03317883670069278
0.05709969556279545	-0.02021876157953156	-0.04258917967745166	-0.08155811329911318
0.01728977271044925	0.01370496613127583	-0.07763126970005071	0.05832974912073959
-0.0791190839220393	0.0157084083644944	-0.126375050852506	0.06915591111061181
-0.08083738076708813	-0.01022344819044309	-0.1086689118338711	0.02005861096560675
-0.1015923237184033	-0.07216938848103455	-0.03487670771854584	-0.02728759269700588
-0.06590486041244992	-0.07182377421398639	0.03264897958725893	-0.05820887816560204
-0.1094931441093149	-0.01415904954294444	0.2086609275658064	-0.03554199077291693
-0.08711431122504248	0.0461148074505483	0.2232594645531438	-0.02872205200668889
-0.04179589552630634	0.06825724485964595	0.1201046679341979	-0.0114983168888707
-0.07854873253698105	0.03080425212205457	-0.006279381934636571	-0.02087461999402459
-0.03810494320666465	0.00363027971895988	-0.137354566333211	-0.06846892962579941
0.008464711124532027	-0.003713635494550109	-0.2026244518725335	-0.0340176317233709
