0.01936857825096902	0.01037350576051285	-0.05709250863616321	-0.05420902384283909
0.004721109434826105	0.03945542208611973	-0.008297185530017516	-0.03942833027743321
-0.007122058753987118	0.05713096303958437	0.07853704639809386	-0.02800239819210628
0.008043461110404156	0.02049189479961216	0.0601467416406925	0.009503824731230626
0.02892764474877244	0.006075320057775241	0.01555605126763027	0.03189378795479396
0.03885684876535665	0.006724314839938771	-0.003684682861269406	0.04551392256686445
0.05470692336728646	-0.01115383799095553	-0.01605802294486428	0.02859174811083954
0.04245350208209419	-0.003022654263339758	-0.05794091290033307	-0.03094522106072356
0.03807327636510566	-0.02541651914512323	-0.03726460039978148	-0.06897779337100338
0.02300805026534918	-0.005762256257758053	-0.01105075910561378	-0.09116510654312673
-0.006997318027219294	-0.01420006291452323	-0.02412636505011939	-0.06390328458881697
-0.02979670555908045	-0.09722514561382806	-0.01203611851336725	-0.02963708652851943
-0.06915503158526905	-0.1506448008935688	-0.02199697627652823	-0.02338258800436284
-0.07602874759011846	-0.1322024539051483	-0.02703418106485038	-0.01196130542015202
-0.1035123969107006	-0.06503372401073561	-0.005194509795733502	0.0005391915642866634
-0.08938694077284247	0.003445399682803647	0.01618850963777732	0.01035542363495848
-0.05543307724866844	0.01802614784299449	0.001699841307493965	0.01667157448859843
-0.009160696751923884	0.08542931298089401	0.004812818195458379	-0.001287306331624828
0.007266373484831723	0.1127975874760035	0.01421447159365964	-0.01032739618990306
0.003563916533959822	0.1096304161176232	0.03648667522748691	-0.0209203926660833
0.01322742896615691	0.0656291057857616	0.02912391696764126	-0.007521175297605808
-0.09124270120065112	0.06119878616858193	0.04496821286147755	0.01926374741949292
-0.107085687018437	0.05036224859029724	0.04852850672027145	0.018548760854296
-0.04364887190253417	0.01431291423328246	0.01699249969553424	0.00195183293614388
-0.008401811928493113	-0.008984471636338337	0.006734754003502489	0.001624994746242191
0.03411379583289349	-0.01550970505104694	-0.002671702126051261	-0.001788261061343492
0.04181068287498743	-0.00130829317957097	-0.01401118865191945	0.007368222751965396
0.03614548671778139	-0.009437954865611289	-0.00427669529118567	0.01130516674751442
0.02034404666741543	-0.005688715039870215	-0.01459860954029569	0.004892583512649377
0.03267043071936977	0.035605101601081	0.002149145337984725	-0.003278469075430621
0.03684076538853649	0.09217682999968739	0.01651690859568049	-0.005635472064413913
0.004648441683606961	0.06388610822182951	0.03669506473773129	0.02429019388070594
-0.03417026113673284	0.01477539418911315	0.00763006436508271	0.03632291061466251
-0.07697609566271425	-0.03830351665155288	-6.679736205601912e-05	0.02138006475489755
-0.01595905118567323	-0.06104671117743349	-0.008562640487016967	0.02054681402303176
0.01451218316949172	-0.100380499021434	-0.01558371320093236	0.02574888696114664
-0.01290720977507052	-0.1044617886272876	-0.01432256064127519	0.03764171878051002
-0.007069208312916381	-0.08104949623132646	-0.006407339807183858	0.04764697862862389
0.0116106151620319	-0.05102627007830689	-0.004022881214107303	0.02264123814360341
0.03717238847668403	-0.02863995624192219	-0.02533276354309948	-0.007893916118190913
0.008754405518876159	-0.03098107841739504	-0.0420949802086831	-0.02002495476227033
-0.01992908810321213	-0.01990441616848759	-0.05035768137656289	-0.02352169294911153
-0.03169383086554562	0.002948975251740406	-0.03817982932710978	-0.00571201805210601
-0.00741274132446982	0.01639638674109618	0.0528325141473114	-0.01833581723928867
0.04135401128315573	0.03821138354674285	0.03951787009212068	-0.01515885034791251
0.0592665641036057	0.0527851575783818	0.02810675075133828	0.003131206003005301
0.04293461989051291	0.07320052473872291	0.02465630709695869	0.05125957709834064
0.04070648048643338	0.05601806948110026	0.03634111842456168	0.05740165921490665
0.02877502419344338	-0.0004228620689547046	0.05003225629742362	0.02578279825209376
0.009726287523475364	-0.01769533536372335	0.01700742473304097	0.003980355278884421
-0.009383394131567796	0.01465663160224972	-0.02142541269566194	-0.01629639273742754
-0.0365084350915901	0.05574240471500297	-0.04086046153140983	-0.03040713434691255
-0.04719448281201429	0.02378019428423233	-0.03730486127162612	-0.02610206064371076
-0.01224642323080747	-0.05305677217561967	-0.03182425088520027	-0.01936175326096493
0.02387861732804711	-0.1033353140480286	-0.02533730062408515	-0.01095133935247436
0.06595501681530487	-0.06749276565864198	-0.03227795075700619	-0.006106827081656501
0.03015532917750192	-0.009879466105832221	-0.0001909502437157497	-0.0005336814703706262
0.01175984862851946	0.0008518161592227888	0.05160291254863496	0.01742815913382263
0.02209784701945289	0.04398389127216754	0.03057038971696079	0.009094101618262894
0.01675009860307389	0.06393898947259824	-0.008152611450531831	-0.004011258297614024
0.01576304758926161	0.05465025940858007	0.004854983967653409	-0.005779788603991493
0.002921544968512794	0.01226994329141204	0.02681775096183254	0.003528697454155447
-0.05263660169847095	-0.04331426875582506	0.0134148316244573	-0.004735432378010752
-0.04511161122228401	-0.02642886823047679	0.01137457838603007	-0.01530415810300351
-0.06604910590901591	-0.0154270112208235	0.0173220857697303	-0.008509599064924584
-0.04453112317257193	0.02033559789108986	0.0330458294859304	-0.008274992559449051
-0.0172773432715871	0.07520977403243369	0.01459163203319166	-0.002050119592635277
-0.008260874869787585	0.0920342123305746	-0.006998915125276189	-0.01340647093977419
0.001386285291369797	0.07529928064437551	-0.004376112564876538	-0.006501249400422166
0.01185981374018912	0.04164364862878368	-0.005797157615803924	-0.005741070426252583
0.02054016547285388	0.02530871288569469	-0.004682091112754332	-0.002801691323565693
0.02042381694994702	-0.01891995373816443	-0.006648017982153526	0.002673809363980882
-0.03539016973554011	-0.06746105512233319	0.01674430584066924	0.0005161713613440207
-0.04605775048177959	-0.08494855979073292	0.01391669964068513	-0.006228291572201187
0.009459113543141199	-0.08567486902746493	-0.02269534254356703	-0.007972635800156414
0.03565737092693021	-0.05756902370845923	-0.04267662803619172	-0.007985919964517998
0.0284032730251619	-0.02279149833287852	-0.01045101584542757	0.009399380122306934
0.002890088731678238	-0.0002047374006628812	-0.009760687728323657	0.04783243349225596
-0.0354423584010197	0.01797900749840769	-0.01658479991937443	0.06110724105023219
-0.0005127897127440764	0.03224463663700854	-0.02623138797833535	0.05833826508360988
0.02574208014640658	-0.002736695545919814	0.00408182159678877	0.01579328882954351
0.03802399534597044	-0.08696000832351164	0.04801806664380093	-0.06215517064925057
0.05343143092597706	-0.09472077604222458	0.04902256524737983	-0.04335654022903833
0.0604755889227058	-0.0387439588023927	0.02154080222396428	-0.0121896558888473
0.003469334856008922	-0.01102474076978193	0.01213698093002286	0.01845953844574142
0.01075783263282753	0.0354576614955287	-0.01628819279492392	-0.004728145772592013
0.01535504492060906	0.05005095738002413	-0.03032230252575156	-0.03104808396194617
0.007567175604455867	-0.03335793857252756	-0.03716402968136228	-0.04065799061950685
0.002803983025495645	-0.07536902873300035	-0.03973402568174908	-0.03196865065226662
-0.02058997989708957	-0.0578201871196838	-0.07442137798813199	-0.01705282825833748
-0.0297331370363639	-0.04902309088196362	-0.0367596404621316	-0.01242099046138383
-0.04781394099858975	-0.03263140715320563	-0.01837932279564127	-0.01110509873293027
-0.08988593549576822	-0.01051068269151659	-0.02982171317320199	-0.007483482961540793
-0.01360163784182446	0.08200521787054582	-0.0535334595253911	-0.0153436745500238
0.06260936618451871	0.1731371371696915	-0.0005800098140811229	-0.0101978219292931
0.04136231196016579	0.158916852451793	0.07601542957883053	0.001889564588735178
0.007892740127432216	0.08090393439295565	0.05351607773784314	0.005842143162700356
-0.002435488441158728	-0.01694255771101937	0.0372813771592516	-0.003458059732593795
-0.03532647075616971	-0.06094304947540678	0.06037974417884463	0.01785075605805655
-0.01044102717093085	-0.06909134277855163	0.045548699255873	0.006651582559934668
-0.009514244724517416	-0.03846909931222856	0.06149428417224001	0.02993934025815888
-0.01360649892626856	-0.0563634225670009	0.03756996453717185	0.05291127730724052
0.008252084893501257	-0.00610462586794289	0.03136515039645373	0.04617305021149666
0.0248134540295646	0.0742739267623595	0.01584003278559246	0.02398507824032476
0.03025263868240763	0.1461967994782345	-0.007281630056099317	-0.002254951449332076
0.03287771902522995	0.1433400676802692	-0.02698782240545626	-0.03353531581357113
-0.05641858726180616	0.1091780667288473	-0.03017642624833327	-0.03641573893320638
-0.01507881177329075	0.1093738856014178	-0.05892527095720732	-0.03261952555414463
-0.03339893829588519	0.08895570978427773	-0.0538789816724338	-0.01586336705331408
-0.0625953332100482	-0.0005347247612400451	-0.04520910854746363	-0.01283211306044874
-0.09720991244545894	-0.06089362165539595	-0.03847935610686509	-0.0006296068752036697
-0.04342544669786665	-0.06424658128190576	-0.06561960400700509	-0.02743402558214912
-0.02196733026473367	-0.07248730670911799	-0.06293592424844852	-0.02895083884484525
-0.01839534604034409	-0.06792325603086494	-0.036681181886812	-0.01273241011155725
0.01937559314831939	-0.05777019649649303	0.01019353763692314	0.009197928109216087
0.06685326631888648	-0.07705561076950863	0.006002230738558901	0.01475657546154146
0.05948481265913419	-0.1071365762006664	-0.001713177325634386	0.03954359858636873
0.06291176105542798	-0.08239407942266687	-0.01419140659848905	0.03134037269207991
0.06748001540635018	-0.04501765273253125	-0.01023169250282825	0.03629454440446746
0.01586943154205557	-0.01867386829747174	0.004864823028215675	0.02736055627668793
-0.0260889732181135	0.0003919229258958478	0.003589791019243423	0.04151730798626879
-0.03619106602856766	0.05207872474200859	0.01679930434294644	0.01658099190946088
-0.05206402544451567	0.05896696609819524	0.04118934751794726	-0.006437005471507073
-0.03577383617936549	-0.008277019312590648	0.03057569615498563	-0.02050669086744985
-0.02192297363455057	-0.004728492830565426	0.01661532444462424	-0.01743051560595543
0.01548675988750461	0.001377201022852682	0.03244381188432585	0.01365898074247202
0.02785049167793897	0.01695605816170354	0.0360009920320529	0.02229982930723165
0.008351816814677488	0.002099977475995249	0.003819228742472156	0.0430080184172465
0.01028061533202921	-0.03049928207146198	-0.006325832933608646	0.01373952760360917
0.04742319302338201	-0.05067151881284795	-0.009768443284041851	-0.042991027660139
0.03060152737643909	-0.05492645575563465	-0.01145027965187569	-0.05332916274743952
-0.00486753470683405	-0.05619720378966066	-0.008021185200331935	-0.05101402062302696
0.0009614904621763208	-0.03530528175836992	0.001117788030485986	-0.03742946388475599
0.01799021171114734	0.002344431606313801	0.01266828591256695	-0.01178476847341213
0.03361133897817441	0.01112564598199434	0.01268099263503478	0.005887638055515637
0.04428122147158751	0.03907274263032818	0.01779966410208451	0.007866521101785762
0.06594777275172396	0.01762590059686917	0.02122004902293972	0.016192838833234
0.03509008034339239	-0.03228184560789512	0.02531829679931914	0.02851168338611593
0.02600888557208446	-0.02415999586401844	-0.001717807689398567	-0.01358028106733747
0.01776895768212769	0.02517555820077496	-0.002212911275222522	-0.007845613255448922
0.02290054509008418	0.04820332601050973	0.0009480971414495561	-0.007699189012701802
-0.01198415177978374	0.09985465996214005	-0.003131968390182919	0.001176933627942847
-0.006445063548338551	0.1578585938705418	-0.01410211789294803	0.01007963828762431
-0.02908594341023486	0.1843345923278029	-0.02686616394458965	0.002324920348446465
0.001052845115579783	0.1405329162350387	-0.01520880046285525	0.008688373805327783
-0.04807051610264161	0.07751627961359653	-0.02284734079113495	-0.01279076557798303
-0.0569437257025849	-0.007828290975148812	-0.01186097482762954	-0.001477006877737942
-0.009120821817797697	-0.005715002052111602	0.03562241536590997	0.001928442757037726
0.0522582570464587	0.01355062318324049	0.05800337338762426	0.001622034844732774
0.04763432120685366	-0.03660627972262311	0.04560341205890696	-0.008166487713060847
0.04809596670711775	-0.1089557429396457	0.02914446084027414	0.01724143740378756
0.03127866899173292	-0.1317150809250309	0.01305256968299803	0.00192785445829425
0.017413151832749	-0.1332653516984552	0.01385829153665529	-0.006036516418636451
-0.0652293127813532	-0.1097903533394737	-0.001817625157534133	-0.001312690249544424
-0.07492595235061275	-0.08484998023384643	-0.04302263437064534	0.003695489312779135
-0.01678195785016483	-0.0398754503948471	-0.03578432243590594	0.02091801532241132
0.03214684893261648	-0.01186710221116266	-0.001352017342403974	0.02282521172984528
0.0222105207139385	-0.002718807614517708	0.00759295878438981	0.006105898758955608
-0.01802911095892151	0.003631266136630527	0.05080068269305202	0.02578291606504252
-0.0329026056527698	0.004092883873063424	0.078561979776824	0.03622581907535424
-0.1199903831148882	0.007230853103162208	0.01970982460428575	0.00746384410046348
-0.1409527808328461	-0.002711419050216627	0.001729868135558777	-0.0178673474367508
-0.05910471945135166	0.05468450185950814	0.01549239020904197	-0.01358644103852148
-0.03209851897330637	0.1234718886247173	-0.0494351036523215	-0.01613623284889987
-0.02940075647132434	0.08549116736384195	-0.06259113312653394	0.003320118041952474
-0.02899033566238333	0.00757666212702344	-0.01353368253590374	0.02212475417777057
-0.0156456086710242	-0.04786072813253374	0.04034706300797503	0.03004478762244082
0.007297460279259881	-0.07746077325279105	0.007251196294197859	0.02708374770112716
0.02563823727754676	-0.08456191140349271	-0.01264784198831912	0.01966834219418627
-0.01122536657368901	-0.09134119760451073	0.007940090042029594	-0.005135148273368378
0.02333611260888739	-0.0700316144982005	-0.0006798115482540987	-0.01898583234335779
0.06840506496294152	-0.04607307446939896	-0.01117210332375437	-0.02511528127492961
0.06126904828875993	-0.02422933221928748	-0.01012734901973914	-0.05077335237985451
0.000437053501365672	-0.02582743699944213	-0.01303401890057935	-0.0420580742825332
0.03261245589219197	-0.002824007348588081	-0.03307739759497817	-0.03039197243498601
0.05088558963023209	0.04219983533458119	-0.03954884140176257	-0.0290482753923504
0.04376394413933403	0.08657565020058025	-0.04061431380769148	-0.0255816801272084
0.05906869023494569	0.09399129812058961	-0.02898711713275785	-0.01923895023428559
-0.05555579473843492	0.06581494696891854	-0.0044203254498023	-0.01400347771171723
-0.06447784076248426	0.009818652051435724	0.007579490082723617	-0.006674951452346197
-0.03772336036610096	-0.01346361828483164	0.007880417578042614	-0.009254396136361805
-0.01856567261101387	-0.0005264694610956172	0.01419595387051512	-0.002038329377420075
-0.005684466572850418	0.02273577731735889	0.01177116946008049	-0.001861892052468873
-0.007052237871554513	0.01035872570917551	-0.005862686908067999	0.007753787475794276
-0.08624323163019992	-0.005341743527609977	-0.02618623080388271	0.01254417774611945
-0.04675153418048445	-0.02777009557919153	-0.01337598233310532	0.005448941388459349
-0.007337262801037725	-0.05654672093942965	-0.001050095446866982	0.02303212360334432
-0.04804374629882841	-0.05363274149234019	-0.008320619245104466	0.02383607091809047
-0.03307401602979015	-0.01682905251053244	-0.009901586795236138	0.003895819457561861
0.009348388069994749	0.03055604953949758	-0.01084165472944137	0.005753618682697495
0.05455378344880659	0.05782446886602487	-0.003981207796947201	0.01015833954337021
0.04944425125543299	0.06024727620878235	-0.01208054596328318	0.01262868008739775
0.04300611859228233	0.03690349896884335	-0.04072991919259702	0.01264477746391311
0.08377081725234399	0.03317431161473607	-0.0333112845566759	0.05758084430336328
0.1102890822721015	0.01343454022211653	-0.007911283466238352	0.0564861987355537
0.09830663945938717	0.009127381300309838	-0.001073859825822074	0.03327769522334856
0.07251030401223739	0.01071762665313369	0.00613878081211639	0.01663216424823731
0.0252630762042617	-0.02558628602446102	0.03847044167600266	-0.02685817874321211
0.01742842605940726	-0.003115727772197755	0.06335233964097585	-0.06811152082421634
-0.0382995944173258	0.04776577505920829	0.04651589097031345	-0.04448274457663916
-0.06265402711116111	0.08601671719625585	0.01936142620081518	-0.02939145793152486
-0.0134706494949068	0.08689147948787507	0.01276737840254169	-0.02389268924656222
0.01737466815207985	0.1016924026356467	0.006823871807850337	-0.02774297507983151
0.03669584423396363	0.003521449533313588	-0.006354911547319105	-0.0215293057854088
0.06190811811271096	-0.04069771794933871	-0.02516175074405418	-0.020209040563894
0.02432863150608031	-0.05213176869956099	-0.01963524599272299	-0.02131437914664466
-0.008048932068578069	0.02545822823038307	-0.004079349299390771	-0.01330040670553251
-0.004821320548284143	0.08200008276057215	-0.02226758234472699	0.006451313863126553
0.03369926242437664	0.08497915056945966	-0.01576986493205177	0.05227134392186242
-0.07129893050724911	-0.1124932376686153	0.00567368035844643	0.02341067821093877
-0.03811636840637606	-0.08415994202829227	0.009297515157639725	0.01133280022876852
-0.01406114392817741	-0.0418793382101779	0.01870998587918809	-0.007719574672069917
-0.03338739108680288	-0.04355049060931569	0.09357660761918639	-0.001745017448311073
-0.0449738330114094	-0.04907519150955209	0.09008594243280017	-0.001005140383745625
-0.01949558293639697	-0.05546222862307384	0.05847405422591959	0.005777586140230061
-0.02658954961946254	-0.07212315044604348	0.01477313630162764	0.00622001939513842
-0.03661278024130089	-0.09804353311200681	-0.001207288344114112	0.008148480541796942
-0.001428716912410565	-0.08516997503970597	-0.01645775784752043	0.004983453733396442
0.03005618089248058	-0.1101025988541068	-0.02932493814916792	0.006143241594915715
0.01476868790770797	-0.06571372320423428	-0.006837667882926633	0.009420109606477513
0.01882144796091887	-0.004829924543676862	-0.003846117229840169	0.01363411399263113
0.004977721464408644	-0.04186255174425799	-0.01364396164793128	0.01828318277804132
-0.002122641506079781	-0.02517552412084461	-0.01538617836336421	0.02985847965849444
-0.0506156824608417	0.00548058898098915	-0.0259837760095353	0.01049573851307715
-0.02525672995280793	-0.0005838681465008318	-0.02631659594500742	0.001157639687461907
-0.001468102433692272	0.009349540486014373	-0.01515768684622531	-0.0126873476964852
0.02732962965727456	0.03268155478856305	0.005956584573836223	-0.02204587850742898
0.04258530133831152	0.06377501898769919	0.01021758981008024	0.002132138744314519
0.0796271565045321	0.03176140581148252	-0.003182386520895057	-0.001868619788388641
0.01509070334891827	0.0655461305735793	0.007615286099402468	0.002681241424526953
-0.02198633968960969	0.07961445443352462	-0.006275113289984841	-0.0008815918350159568
-0.02760894185489743	0.05656035643335837	-0.03930600315103039	0.01512043467468131
-0.006680184081652402	-0.002678344207685659	-0.02006334451279066	0.0124266528351645
-0.01401565155452444	0.001733169505309913	0.01104427669520437	-0.00616642695961856
-0.03513040329732674	0.02217746220873284	-0.002494279602746616	-0.00658578931056964
-0.03254645828440914	0.06478630282513168	-0.02535599410752305	-0.00627410711009467
-0.02188153676792382	0.05613269854773048	-0.02253991191369344	-0.007848689643062286
-0.01128741104126459	0.07821719068234936	-0.0221723339159291	0.007862255199595849
-0.009142321106101695	0.1204371249168841	-0.02567814013309016	0.01629864045474192
-0.004682648174400356	0.1267213249786053	-0.01950382852145329	0.03094628937175106
-0.01313314202019333	0.1087408621433787	0.007954189470905039	0.03524594842856244
-0.02872108641162836	0.1117827910579668	0.02346599315920273	0.03040109376684744
-0.04388628175373137	-0.005458408370543863	0.006435602081132434	0.006335986808312043
-0.03647802483648808	-0.09308243662580895	-0.001977559856862857	-0.01361228709534422
-0.02901024367883102	-0.08267687764080291	0.001499298310079316	-0.01187185793281291
-0.004275061997682648	-0.08893596683039239	0.01510379628334797	-0.01527865686630201
-0.004770495763688739	-0.07662810694938479	0.008158796861193432	-0.003175985042788672
0.01181803429102597	-0.07281648611223933	-0.004747436753177472	-0.02432927947861401
0.02676192711162531	-0.0331034539260948	-0.006056101801453216	-0.04346157488931679
0.0545963462911481	-0.01375935842769267	-0.005647258037683285	-0.04027663141088652
0.03367134092080994	-0.008926761839727279	0.005982386166551318	-0.02430339392811836
-0.0113230972353876	-0.01962169361928944	0.0126671159035657	-0.01765297799342538
0.01140718252824168	-0.007580070706126487	0.008932405298199251	-0.02279654178527172
0.02817570486562462	0.005548369849934475	-0.006719777848601447	-0.03761089618118927
0.04278218128359206	0.0005780388577067566	-0.006609937455332488	-0.02468541799791698
-0.009239280312574198	-0.00841784172456181	0.0007475298285737258	-0.005326157168469159
-0.06167978172015506	-0.05485618069080663	0.01537141216398189	0.003012507223533454
-0.04170955996858235	-0.07782547207085873	0.00867585527390176	-0.001470244861448506
-0.01808550513739096	-0.05735999231236745	0.007184345811903962	0.005385504021902253
-0.001811279239687677	-0.009520458866557457	-0.02417049427210752	0.006298296571908017
-0.001072991893230677	0.01962493612472396	-0.01562307041880194	0.002938270595080388
-0.002705900010874013	0.01867863229094369	0.01385447059621649	-0.0003208506039500975
-0.01987136830250051	-0.003615250958819479	0.02077906234704176	-0.0004292882925136975
-0.008647396324480279	-0.01518365397072067	0.009477480389192159	0.01326002382919202
0.002134388688048011	-0.01762322064652132	0.03631960044253381	0.03268629080063463
0.02191255297273149	-0.002283534508368709	0.04057267416075689	0.05681885381983635
0.00788368565892706	0.01750310807970611	-0.01066695051463448	0.05065718570873978
0.01390977673906665	0.01199998560737	-0.001772387287746513	0.04489589349918123
0.05243826712954193	-0.01169826588204491	-0.008134236521899332	0.02872691842831295
0.1090197700241139	0.03215899817345506	-0.00784583274352121	0.0128811605905506
0.06923719958265102	-3.032807119723006e-05	0.01231391347191561	-0.02958809312458292
0.02681975762280527	0.005795377163133358	0.06820198978644865	-0.0125254232683441
0.03285744437715591	0.01739222256414515	0.03494886846478572	-0.01566723258655539
0.06959263746347705	0.02892179843192859	-0.03307014737680355	-0.02027363109399873
0.07614933629216523	-0.006252849815840277	-0.04521679030400527	-0.01533486188425279
0.1066135073048877	-0.03921300079858255	-0.002438169688664342	-0.003908870879300482
0.03792305545629757	-0.06612897588664651	0.001368534668528481	-0.006763477410548621
-0.07990301197625677	-0.0640447197438434	-0.02962512260098601	-0.003162550796226406
-0.05489751403710859	-0.02047224519644129	-0.0370303453114064	-0.005182544125735081
-0.05024654042233014	-0.02914510187113598	-0.05218608626187879	-0.02818994290440993
-0.06039675588504669	-0.04023681026693239	-0.04833208612590523	-0.02471039959041994
-0.04555255687423549	-0.06072227187091442	-0.005096021703537689	-0.0061535830670327
-0.04430425412422166	-0.139861940306914	0.01625547832317071	-0.005200706817088165
-0.05626746524198715	-0.1112866068305962	0.0283401004023555	0.004366529547684725
-0.05072267023688187	-0.06627928355343005	0.04297718417358094	-0.003918260848730317
-0.1154120601296854	0.01817803953731449	0.06185313319093394	-0.00708291280448865
-0.09386968453116117	0.0855814181443411	0.03651683217163149	-0.00687220586940022
0.02032486573938593	0.1822864145606591	0.01573475645867392	-0.008974521877391516
0.07514710264445673	0.1917434677315089	-0.008074742978397269	-0.01001248832657439
0.0661342573965412	0.1595892369933073	-0.01974692316982262	0.003750660064407322
0.04605624144008769	0.1279416860587888	-0.03668563765105704	0.01732997811129204
0.04750300651854034	0.113338618926858	-0.03185496788568808	0.006972838113828927
0.01635010252204241	0.1160589134892171	-0.01319132888981042	0.005769884300754477
-0.01824251747181474	0.04814100759958823	-0.0107848271563118	0.008047335305803883
-0.02746488185762113	-0.02983039622479943	-0.01628581925297847	0.006172619588368485
-0.008711856343194588	-0.03965461241469133	-0.01788729729591762	0.004507840026203799
0.003486886487111154	-0.0391046017780054	-0.01205628820698861	0.01140318086605099
-0.02239611488887479	-0.06178192474470905	0.02069171668754823	0.03065971056585656
-0.03738768227612024	-0.05160823128248247	0.009173483435824491	0.03062555890905595
-0.01752928218757565	-0.04236589642079145	0.0009679920506848055	0.004272320962571392
-0.02237460852965426	-0.002477273181625927	-0.00990481757679987	-0.008679860622431236
-0.04148640559588262	0.02835683523674166	-0.009220924002695507	-0.009640352457828712
0.005714848084210735	0.01082961898007673	-0.01387536791159733	0.000791154841134289
0.08913673492819055	-0.006138949314135107	-0.0275796015603714	-0.01119782096870321
0.09133115431008924	0.0116064481777773	-0.02354909662582753	-0.0110990929414381
0.003825681808177527	-0.007050622384829197	-0.003343461308871757	0.01217631851629562
-0.03757720612218816	-0.04660192447008409	0.02666444984326426	0.01687709185726732
-0.03245400673849477	-0.03950477064031815	0.03356338167672956	0.02550218668916338
-0.03937819143036412	-0.05286366405394567	0.01189771200617396	0.01989505536953715
-0.04852537643019833	-0.1395106564727364	0.0168970425663439	0.01583684968043282
-0.004301274585313408	-0.164330827348034	0.009261870142014583	0.01606980032522443
0.002034087160791779	-0.08470346525166195	-0.001964432937405994	0.02222427861011358
0.03249172894763863	0.007286588652422837	-0.01762484081281576	0.008664307084300986
0.03822168399471879	0.03304762479832724	-0.04575876723201693	-0.007828087323885975
0.01678503650361644	0.04234457442478889	-0.03665893082892607	-0.01864555142857217
-0.006815967214762403	0.04580155022966613	0.01076588632492131	-0.05154401040817168
-0.01104664590994023	0.01549537756227424	0.01331299431307884	-0.04942239850570758
-0.01192711685647899	0.005253611204043697	0.021983371330866	-0.0220862049277513
-0.04470565807972381	-0.02410782197240498	0.01639208122410012	-0.004737025382876524
-0.02321163785611184	0.0152430418322804	0.00713816475859148	-0.009823835063396557
-0.01790059098640316	0.04076010811211277	-0.02121309468011943	-0.03232855166387559
-0.007938400801981004	0.02988041083473286	-0.01853960946742719	-0.03418420598450023
0.009417691228275666	0.02238900410893791	-0.002851388243088099	-0.02183637277122666
0.01387259120495293	0.03596666673573255	0.006480549578050225	-0.004279677981410483
-0.007592077672314033	0.05061413787593086	0.01557039926534811	-0.01274735698300148
-0.02448594184265828	0.0557018526404614	0.07610159698731178	0.01008873607255802
-0.03442478198618841	0.0567991610122701	0.05011255273865886	0.05358294358616494
-0.01874691716552686	0.04437745117053615	0.02945652790859089	0.08651523365554152
0.01039535092317801	0.06284885654229097	0.01501810104948275	0.05710694888063729
0.03606724013447717	0.08253382432285088	-0.00896339621827048	0.02757414673375289
0.08128979075284473	0.09347682658402852	0.01863229775079002	-0.01758844917679293
0.08734231467325881	0.06017256380110422	0.02513597603904474	-0.02376328202605908
0.07944249639148752	0.00640109061556007	0.02269987294907662	-0.03266598482807662
0.07783064378152918	-0.1012381446129933	-0.01649741316208246	-0.03036888562201501
0.0644902605325843	-0.1665198760890171	-0.04195778828120779	-0.02950509137123891
0.07306787098688058	-0.1475772752373941	-0.04543226101377092	-0.02611755262715126
0.06264435091010498	-0.07190798674047698	-0.02429728321023523	-0.01883001823697669
0.04002453156576321	-0.03077715030373897	0.02615138689581504	-0.02128909685510353
-0.0041986737461094	0.04221855581388282	0.04305609996235606	0.01876056874892962
-0.01317021080731993	0.08036315850414316	0.03392312634989254	0.05480699471345808
-0.04884625884564288	0.08503193377376826	0.02328346131729296	0.04807344370112927
-0.1271208502234736	0.0436444938861704	0.000371197145915833	0.01505544240134376
-0.1583030139235315	0.04601778322461072	-0.01360741741311978	-0.00556427202219111
-0.1132365412891103	0.04058369844279527	-0.01518717346196979	-0.02256382253904519
-0.09132251569409665	0.01317211679697392	-0.02205056987235579	-0.03587366455066042
-0.07242368577207454	0.01609253780047028	-0.03149511868560662	-0.009242465491492685
-0.03617163609321918	0.01929929014269048	-0.01776803685816559	-0.002136899244758841
0.01187105506052058	0.008333304685284594	0.003201538454230656	0.006249384589882209
0.033775693576245	-0.03931931612569557	0.01479666033396439	0.009318938246090494
0.02130202068402656	-0.03500109418183699	0.004184599190454697	0.007810008931313854
-0.00317750300421013	-0.01270725497860291	-0.005721561047283355	-0.008185914253173226
-0.001537754313376329	-0.0220109130994986	-0.02054828117101165	0.01481615364377731
-0.0009144252570712753	-0.03068940793262358	-0.003471182572059322	0.01806782461164445
0.01462096070339584	-0.03551910171417028	-0.001278125441276888	-0.001612222391306109
0.04085724366110403	-0.03054481318501149	-0.01984211761098867	-0.01884993148095195
0.05543338223523897	-0.02928320901634233	-0.008175147055420225	0.00426945870890424
0.03672854679984356	-0.03959683014392516	0.004631757580051682	0.00885749633538737
0.02637204073812122	-0.03020401469219949	0.006171771750149239	0.003630381620746984
0.003771305950839958	-0.02874447930323682	-0.0009701450979601768	0.006134504498527159
-0.02553703866175492	-0.00759413941398389	-0.03001139109380304	-0.004602138362080481
-0.05385477396926641	-0.006880220164116678	-0.02032664802070713	0.01108469025367084
-0.02247312872508846	-0.03179628020994105	-0.02890239607376615	-0.01629756029167296
-0.01345842734722361	-0.02780659093329993	-0.01067865174521286	-0.0348530647443942
0.04789542070263975	0.01013435700977658	0.01908638290844797	-0.005848509462118627
0.02973187150687136	0.0209783340454912	0.007394086566322578	-0.004642091817712444
0.009668346598891901	-0.01378676752169085	-0.01389958629706565	-0.02243035850645679
0.007438908801602626	-0.07700111940011385	-0.04714127829798345	-0.0398007077393014
0.01270331609239914	-0.06715908831829445	-0.04019003913599813	-0.01545662735015246
-0.001680179015472653	-0.05109844175348577	0.0114680815643116	-0.0005902041199083341
0.04353719038307831	-0.01291240003140449	0.06571449524422968	0.01826283423605079
0.05370423311696787	0.01450526917596382	0.07087373924350435	0.01338846807458039
-0.01842390952904151	0.03580662194487057	0.03183500601921439	0.006700484823465486
-0.02526786795648027	0.008109008986836155	0.02162648389716882	0.005417362693948945
0.02537626031825393	-0.0763626300594283	0.006718020033853206	0.01344296395950741
0.03939151527361161	-0.09761548084302324	-0.01089330078666925	0.02166804077350517
0.06142322245560303	-0.04809682505480498	-0.02488681808405633	0.01485158235280295
0.0938424627018503	0.01574178274700137	-0.01823337370760302	0.01477858605465884
0.0700722021378387	0.01366439891681559	-0.01523614465633989	0.009552327747294869
0.05929297280094432	0.07475005073744839	-0.02151603729338411	0.002462382994127564
0.0383587054714582	0.1150641360921655	-0.01872472930766164	0.003176512695041892
-0.08987617108180293	0.163513457768491	-0.01876893624669403	0.01062586882033786
-0.1367421266119496	0.1095262271181459	-0.02036455232834755	0.01143066322969753
-0.1215707692645116	0.0469588119761073	-0.02831991781307595	0.01136534498526208
-0.1006482853957666	-0.008114950504038961	-0.03103102754395463	0.01829534357613112
-0.07410112035678948	0.0009356483525896954	-0.0004954985409126875	0.00665276009599805
-0.04335247181323824	0.02201212342953185	0.01555638963522619	-0.003080206206936766
-0.03395397490272339	-0.02541813417883381	0.01659220085158879	-0.007599186638790469
-0.009034568502731714	-0.03709493833078732	0.01569646000376116	-0.005290772861583167
0.0342952091366068	-0.03777591880741582	0.0424081515207275	0.02273226954883383
0.0269692013808399	-0.1051363819273752	0.01676012362440083	-0.0002085859947176234
0.0346471077739573	-0.1039025352591608	0.006380007003892132	0.0008163499493121478
0.03313012750059267	-0.03041180650004451	0.0003957943495817127	0.004893325562940235
0.01572796609413479	0.033695166876995	-0.01294931821836367	-0.002006811008865616
0.01099839211637372	0.05281504587880983	-0.01053823387259062	-0.01068451997362941
-0.0231387692961504	0.09306974997829624	0.00385828479808147	-0.003330738772651328
-0.01552137475152212	0.09048031567622368	-0.008385441923035966	-0.006337645940229267
-0.01867460088468423	0.1035148829374292	-0.01529196594325241	0.003791206703474141
-0.03002125367556871	0.08610866579784776	-0.02070086898571535	0.004979612401458416
0.0005962477515308529	0.06626396975994646	-0.02130049469294473	0.004834487323389056
-0.002619260850841678	0.05229972500765734	-0.01863521159032563	-0.0005549864461664258
0.01466883126570348	0.05694859024867524	2.845266583383269e-05	-0.007362242305299675
0.01240821617581621	0.0384001671627784	0.04171878278942415	-0.01506971760429873
0.01565763329888811	0.01245657637402588	0.1082660480416556	-0.01320501468560588
-0.02061520210176961	-0.02035421485457678	0.0991935901253253	-0.008834799607801641
-0.01986036236181287	-0.05765641573181567	0.01364796643000086	0.02628493708777472
-0.01859783037038114	-0.1104761309480938	0.006930031624074669	0.03612082730712059
-0.01448806276681116	-0.1128046556804031	0.003988155397706796	0.02531793152968622
-0.03695517831491987	-0.08502046008164633	-0.008406356113522757	-0.003491347888399424
-0.02656663466190909	-0.04554018382132254	-0.02773397822224337	-0.01641071407418061
0.01312751388090669	0.028645993118626	-0.02262534571208327	-0.02133042295237485
0.0154919642044004	0.03441316885805584	-0.000720663103247852	-0.06787723860635772
0.009669230632515919	0.01196320949559347	0.03609524696196875	-0.00719491410706211
0.01164203146162643	-0.01618511822615329	0.04530939730436543	0.08538467296124486
0.02653669331921623	-0.04606081553890167	1.73036767149918e-05	0.0745974952286677
0.02961805784385911	-0.07373894178378733	-0.004557232243395628	0.0192336064199902
0.03051488563817632	-0.03956196054275839	-0.01938018993180895	-0.05348349369578812
0.01100522092691672	-0.05983861422682592	-0.01705727461683061	-0.09440866545647941
-0.01900472320142118	-0.07993916815053941	-0.02686856456629115	-0.0770196576083601
-0.03412687914843531	-0.04181700311747519	-0.01601581279366838	-0.05649446154434714
-0.04253391341690114	-0.01058735544350981	-0.004405413965507504	-0.02149051005567463
-0.0163556870468874	0.05060275657054532	-0.003175338575063234	-0.01190321827570871
0.02992664921439216	0.08135134875705739	-0.03710838639460887	-0.01709723886030594
0.1045755422867486	0.02261117737281995	-0.05791718163620342	-0.02573810669981206
0.08542912267718142	0.01966495730982927	-0.02694229989885503	0.01343529999572604
0.07147038883604877	0.009666995926724683	-0.01760494785289919	0.03738502014240665
0.05108716118963265	-0.03248472453773301	-0.010281008954609	0.01860697102422813
0.01259079611572659	-0.05326317850041096	0.0174612830917895	0.02805586287581423
0.007973505175354259	0.002310412015222434	0.01903740088409724	0.00314477360022244
0.001039250441582913	0.08522974608679697	0.01046319554304875	-0.01966884560939225
0.0169281702370733	0.1114831623654206	-0.008636901277450391	-0.04940305940801493
0.01493182288045901	0.07895869965567012	-0.01051229959489635	-0.01488658550905514
0.01386060688825832	0.001512566855925653	-0.0124217025421113	-0.006059576519084292
0.02666982266113442	-0.03374335931036699	0.002475656000012149	-0.004160693273019894
0.009300863542030344	-0.05406479078316881	0.005042611198307487	0.006052768882443702
-0.0101555295708672	-0.04250136123910356	-0.0069190038568342	0.01071945254945303
-0.03159443694550067	-0.02006790245612461	-0.008183790290329658	0.01517463817461085
-0.03725290752951411	-0.004786513637619802	-0.007630298159584709	0.01780057987881284
0.005716638993323726	0.04131090600125612	-0.02093676406158813	0.02834278227094215
-0.01088560888213844	0.06452847846195782	-0.0205220625006829	0.03437709786092304
-0.0299216555747158	0.0751349275981987	-0.0158079418269917	0.01700123750249995
-0.0178444131309945	0.06197705461173887	-0.01491480190366606	0.01114480905509777
-0.02139756322191978	0.03589806320198499	-0.005914695746416284	0.007243055966234217
-0.04312824917776412	0.01761800748099585	-0.01217912089140969	-0.0112052057382528
-0.03099434687665278	0.002357019933904871	-0.01356360466957636	-0.0045705966292449
-0.05058546122242151	-0.06192681756150167	0.02255273729729186	-0.003882880218288639
-0.04491878282011189	-0.0794057503814353	0.05551418739850383	0.01935451361238778
-0.01953427496174181	-0.1096906401813449	0.04739818430698452	0.008145444336755008
0.03781231858412903	-0.01869878611384067	0.06409160744208542	0.002087577488952867
0.09288422495523327	0.03377950431991019	0.03393351536910427	0.0001616703310155265
0.1403592343713453	0.04434848547068566	0.009150444696861649	0.007605576084617367
0.07592147996613388	0.03036480281267557	-0.02940418576237123	0.02779789124693716
0.03719320160154505	0.01033409986349623	-0.03673058147947678	0.02089748734428143
-0.05427195134177494	-0.01058512713233699	-0.044625056882772	0.01058548222116351
-0.05011399602636162	0.0007877274102853003	-0.04252469918333136	0.007155432784205124
-0.009311288399529332	0.008976787007762979	-0.009634044995200744	-0.007822765321426055
-0.01551254390582291	0.005332656633693482	0.1020574540409274	0.01853855511357656
-0.04880133647005848	-0.006827526685594454	0.08885539025821376	0.01201448655096262
-0.05971955305298501	-0.01335769902433639	0.04746408012617084	-0.003489600676459407
-0.05509468923817154	-0.02386301220164006	0.02874807157572327	0.006107682750989196
-0.0648517069492501	-0.02711236342829987	0.01439190172074431	-0.004350542968047875
-0.0215292397589804	-0.0159706677740007	0.01022457223910171	0.000398895607855922
-0.04256818133220582	-0.06277728961888149	-0.006685321488642013	0.01514268335667465
-0.01804839570971502	-0.07981046235384003	-0.01825391592989055	0.01744378042583519
0.01110277219758489	-0.07612866128762807	-0.02466984582179865	0.006803955489307063
-0.02050888888265747	-0.04598246227887029	-0.008725996702478794	0.001919258303812254
-0.09762774498468459	0.0009899828956319578	0.005291970534183613	-0.008591206220154564
-0.07676933949932747	0.0205621641421012	-0.006893755896859182	-0.01819556392775106
-0.06002800528634953	0.05061331506502462	-0.02680019478726699	-0.02683018986316004
-0.02336664466829781	0.1061303309194062	-0.01232828857581678	-0.02440619403199631
0.003939612775328402	0.07688689672813702	-0.009813863150011117	-0.02772095152182288
-0.001304730808811402	0.06764293932434826	-0.02545069433481209	-0.02419480563254665
-3.236891879619208e-05	0.09836580306129364	-0.02279180464825824	-0.0146129002373566
0.0076949363576959	-0.03031845535929716	0.01285259713009644	-0.001634973328627695
0.008854783056048613	-0.1296170717147193	0.004084759397947208	0.006215829808032725
0.02167308879479897	-0.05366482061222522	0.004338045315594779	0.01449337029961663
0.08134645382688954	0.01341679181215256	-0.002485791080495297	0.01321281973006415
0.05969832516303313	0.05867107016903274	-0.005884657725990827	0.02697841119556738
0.04151483946187421	0.08089070236890712	-0.005973775940496685	0.03655607039331128
0.0305200111804945	0.0793444763670835	0.002753249392899318	0.08126723054472861
-0.003563530099545123	0.04719268059015946	-0.0008380125033838711	0.07870252327120535
-0.01443508828424663	0.001751062115605534	-0.01354067040766857	0.05572932608998012
0.01586679974985298	-0.05046855322450763	-0.03118139997151184	0.01244294981616725
0.0389759189411938	-0.07647763205871495	-0.03408147673934141	-0.04611969067677943
0.03841153412462688	-0.1363956972123363	-0.0346753808222432	-0.115544220788345
0.01912096490572367	-0.1513941072670108	-0.04191515896516312	-0.1111747893132305
0.02042217915086848	-0.1135879373289405	-0.07126431538022389	-0.09022359516286914
0.01565529783107086	-0.06645520325691912	-0.05156641793574577	-0.04098510186151488
0.01236967651243097	0.02688293348424415	-0.02601761799170795	-0.009637659981049202
0.02979568868314233	0.08537044721108124	-0.007300288500119411	-0.003712597545636251
0.02076840074505737	0.09831426170122436	0.03133455757581026	-0.0142555603108809
0.01034477551729112	0.08492023650267833	0.07332427360191017	-0.01837384978438815
0.002742432397517934	0.06451222397318117	0.06340255300802693	-0.01652214386407526
0.04337145584756658	0.06945652152182157	0.03798944074347813	0.000976571996048605
0.05184394977679176	0.04715652995365453	0.02530128213604748	0.01498061613176736
0.008837660696631689	0.008798197719960633	0.01452948354904746	-0.0002001375670347891
0.04393463198944825	-0.0606317544809103	0.02743975995458503	-0.01152440584491023
0.06164872051312321	-0.06920957364375943	0.01877061142530553	-0.0002843113010496179
0.0275434105334186	-0.03268602144515078	0.004307618919857191	0.01740688958495386
0.01349102813562506	-0.02250316245793203	0.005957213602016915	0.02095545083399462
0.00983400539859622	-0.004110723910152703	-0.01848393556337023	0.01023300027053577
-0.004912641382600233	0.003498442137434085	-0.009217411041910326	0.009643371979964812
-0.01273252624595691	0.0613840455949267	0.0109891811787428	0.03558229956548858
-0.04581233244266433	0.08901414614238347	0.03077255009611149	0.05571268981327165
-0.08314640278630835	0.02949280926346037	0.03908416074699	0.07239368798631893
-0.04756271074556675	0.02398211936077254	-0.00295518547249626	0.02054247358455208
-0.03518252105138737	0.001530685020605039	-0.02552692730073127	-0.02635541005929763
-0.05048468087873878	-0.02946040942835014	-0.0241504282907241	-0.01185099648940128
-0.05626539155874625	-0.04792693864951895	-0.01930077757596023	-0.001425711682240141
-0.04267039028058579	0.009076711348925411	-0.006270612899710545	0.02302657545354864
-0.03163478286914538	0.02904423225968548	-0.01206308423416674	0.03493746819486197
-0.02500218239341054	-0.005656812963001469	-0.01078806569244204	-0.01098646448165685
-0.009455236886717473	-0.01365419901920178	-0.02534148270382906	-0.04297860964793577
-0.007415465445004621	-0.02211229954325893	-0.02831807541180226	-0.04743483077763879
0.0100128684600869	-0.01136947362232656	0.002814795088728492	-0.01075611267177982
0.04920012546125696	-0.0003372419560749085	0.08082666494427382	-0.009567685241131583
0.07976801830662601	-0.0005878157502974191	0.08339134671568457	-0.02667204647558423
0.03086502893416617	-0.02175034528375207	0.05659622989721704	-0.01923330910325372
-0.008164821128742188	-0.0116590836916606	0.03399814861671557	0.003328084719081103
0.01502377826728887	-0.05109835305872591	0.02560087204256525	0.01223640478622675
0.03296022368501337	-0.03626588845128816	-0.01494739598921888	0.01060201030311056
0.01138208934070669	-0.0422396553615064	-0.02935017131015996	0.00200048173521191
-0.008918669069151144	-0.03754031683160945	-0.03985776544358733	0.02871870160272352
-0.01952934956568062	0.007141423929869523	-0.04014343201742967	0.0744130488047267
-0.01610404867792292	0.02304922571992749	-0.02090014105030609	0.07190004127379927
0.006419160847459835	0.05281870581413963	0.01074217514583466	0.04639895119772014
-0.008775355200230858	0.07381310255794561	0.01042093591874205	0.004078195405969822
-0.03326339464264352	0.02391175744047134	-0.01121702132115384	-0.059386709085494
-0.05319279098435147	-0.006933089737078057	-0.01625115313021943	-0.08328325396673945
-0.03998413206663676	-0.02893568466134518	-0.009751888856212412	-0.0738594880149951
-0.003963599531140789	-0.07135305538979242	-0.009415883939243131	-0.02691166951834927
-0.003910945678186192	-0.04907745868426747	-0.01489399925166009	-0.01951930784130277
0.005034311184936307	0.0009910024272643475	-0.01633988515731202	-0.02148018137792688
0.004255794721027033	0.04206121497922671	-0.03846966981382937	-0.01047651652454129
-0.005129957169638786	0.03986411807911876	-0.05966619907669204	0.005433776646148115
0.01670854661920057	0.04725098341345423	-0.04213953355094106	0.0228294187076549
0.02878953674341013	0.06937302105142025	-0.002722806067618665	0.01336230919664495
-0.00011948002461779	0.04782294403611034	0.03400943625563153	0.004881858717899585
-0.007717041559211598	-0.03400354805719956	0.06290706866071698	0.01431780845531691
0.009661816930019234	-0.07564482683765732	0.03604922155871037	0.01080405714696694
0.1037821620833339	-0.0768180851942287	0.02321481626438363	0.04709554382019365
0.03045592786625635	-0.04231677572116957	0.001020799869480157	0.04136441739712483
-0.03442076899237231	-0.02543509146203404	-0.0290683321437398	0.02329255066954612
-0.02888721492852751	-0.02451192738378457	-0.06115718632599874	-0.006564823092992792
-0.01009659926120896	-0.001866570144877944	-0.05395048928733194	-0.03447642710661607
-0.02272231949440443	0.0415570989180768	0.01256730501154761	-0.0407349705936319
-0.08304905997627926	0.007386507842272523	0.02273112008945241	-0.02386301022280076
0.002168014945640446	0.09579657664702741	0.02948015016186486	-0.01435323906492829
0.02863184426530734	0.07174603031094352	0.01673963548712834	-0.03721669876880654
0.02145997473665833	0.04672734390778053	0.0153338176540147	-0.02648541830090066
-0.004293730349398041	0.003617262496968923	0.01942537358686968	0.006101831916835274
-0.02048664061904255	-0.07073249658551015	0.003097631250513464	0.03132534087304312
-0.002498313357697189	-0.06770508551798611	-0.01155827592211795	0.0405943819847893
0.008093117539996137	-0.0448121966403839	0.00461868728433142	0.05149923129166836
-0.01140678366477479	-0.05269804714697237	0.01229429986322258	0.03833937794111322
-0.006073657214280624	-0.03854658511584107	0.009683279342844325	0.01020532548874878
-0.01971145555845286	-0.02790574325056257	0.02568724596412158	-0.02252351145814729
-0.02354793396007041	-0.00545491010919092	0.01341643576165369	-0.03122231028848084
-0.01839002497561672	0.04674483789691035	-0.01850930569903301	-0.03971668195347309
-0.02664270522049129	0.06433012636687277	-0.02382852231729866	-0.01437157046228415
-0.02207577685078088	0.08586839416323314	-0.01942143581596103	0.004671682746850403
-0.00917501680126686	0.1172033228908685	-0.008273512447539384	0.002550283042829351
-0.002435898599851365	0.07444177062627855	-0.007538053478939084	0.0007215794784693466
0.001536918265703183	0.0299446098672618	0.009020240677931368	0.01071609192758845
0.01846695128809987	-0.007650526102774082	0.005974692909237223	0.0043927222930081
0.009132428340960388	-0.03155758397921184	-0.02597294958260448	0.00530463918056197
-0.0004344198361041355	-0.06735662441907675	-0.006400596536625616	-0.001732125245742275
-0.003366084329582607	-0.07265742462050223	0.02903520234749171	-0.002786910410050859
0.01734012392148689	0.02360254329045926	0.03414400313006905	-0.002829896265629595
0.0001366278398489102	0.1076236791988228	0.004561686302046529	-0.0009357746307985017
-0.02463257828114764	0.08606515934077021	0.02073036172075791	-0.007867452690727424
-0.01809515644631667	0.06670686998920032	0.006905126915399431	-0.002595195319062134
-0.01062891494076034	0.0683952879787863	-0.006528681016471305	0.01711148573833123
0.008847949599501257	0.03422118326489364	0.007716993077889246	0.05162239194873009
0.09249187569417183	0.01933898645158837	0.03453330710508015	0.02474872235253293
0.1110014756776197	-0.07493336615379968	0.005704147999332497	0.006185487271392222
0.06699170877733844	-0.1616172075530791	0.005230202022238122	0.01411903381930063
0.04493700312493292	-0.1624179319870616	-0.02666365181239989	0.007011277880155358
0.04291524272248089	-0.09306888726333763	-0.03545914170459111	-0.008371511135740679
0.009787986285202787	-0.04723976156856862	-0.02787689660349308	-0.009334388796355338
-0.06876858938408198	-0.02368485243188492	-0.03366545022042731	0.00318928193414659
-0.04852347095545804	-0.003572729491460266	-0.05567222748133122	0.005221778420494519
-0.02445673484474101	0.02825474652338787	-0.04893240659668821	0.02522822121848348
-0.04153304790827066	-0.006270346543248739	0.01033785641646167	0.007688023971644213
-0.0179212465953265	-0.01169443308822934	0.04489243996760006	-0.0109836526166266
0.01503020416295863	0.01565314922663976	0.01494134802019881	-0.01755211646264463
0.07132963251368075	0.0218338838809447	0.00862875350650519	-6.360295670519093e-05
0.06191758691566154	-0.05796312286324889	0.02596444558893902	0.00515430571293405
0.0592363693689551	-0.0389284866684656	0.02992564236327882	-0.003474485668892105
0.05336461084478355	0.003170618700540103	0.009219758634604844	-0.01151481791892368
0.03582347863371663	0.01652482694317769	0.005923721256877131	-0.005260764144677379
0.05438214892045078	0.03163085402618856	-0.01574838426433778	-0.02433673938438496
0.03353605952670924	0.04878890855025427	-0.02437139888089837	-0.02644526988228517
-0.005390733464448624	0.05501437174945968	-0.01906844016747591	-0.01740423991936647
-0.02246579279192095	0.02141727814520994	0.0008046947092081045	-0.0099661573404345
-0.02819906118380628	-0.01606728645549508	0.02337316264181461	0.005657089966894534
-0.08485441520122691	0.01076558228497861	0.01596504964958834	-0.002910000777267177
-0.08299911463579125	0.05781727632152847	0.02118039911592138	0.01021625879499151
-0.05754337579506184	0.05947579202735142	0.01719895440713157	-0.006286278172183409
-0.0234157177232542	0.02161336281603016	0.02917973588061523	-0.007911447198416025
-0.02427986944409539	-0.01938375484460998	0.006348103507543212	0.01141954584890027
-0.03524053897158486	-0.03273742279576794	0.01125585162820788	0.01226882118240337
-0.04252122336485944	-0.06124982888119718	0.03654999884227315	0.005951248926640072
-0.107417973033717	-0.06003436869851608	0.01844957660398645	3.70951961018366e-05
-0.1282140824491952	-0.06411583376634966	-0.01878370092316909	0.003623353699000201
-0.05679485795572995	0.03823491022666155	-0.02385281085484599	0.02967877841194219
-0.02415885197952754	0.08474205339004666	-0.02074254010201959	0.01689858263692703
-0.04073574813011005	0.05796906968249155	-0.02653217996334132	0.006970266537425615
-0.08341490582158873	0.04278959445202425	-0.03515334783908416	-0.0002779103785310742
0.02682186000093549	-0.005448673460586634	-0.02957884885876059	-0.01278118945207177
0.2356403383504854	-0.0002761872424793409	-0.02790934166175415	-0.00215925581674711
0.2439013781149196	-0.03295239186869722	-0.03626426636672254	-0.0204761062203178
0.194493847482035	-0.01862997523835855	-0.05995501338141554	-0.04448891008813989
0.1505726235530778	0.01128825033928562	-0.08546191426896516	-0.06606258442391819
0.07797461834468516	0.006615067695116898	-0.05234449396492043	-0.06847725529404494
0.05155318431358198	-0.07074666775973618	-0.01674617189413692	-0.04795797714494453
0.01323874453045873	-0.06910777075461143	-0.004600794268352663	-0.01205570456240557
0.01250878393974487	0.01715908755196089	-0.007760486241027638	-0.008400972625066705
-0.06514346507630796	0.04342757238048744	0.09335193507977657	-0.01384454173098233
-0.1572507379736402	-0.03221305409781024	0.1940476007006335	0.04719395723330364
-0.1009258590392007	-0.04041524404082632	0.1726635709040335	0.07639111633207572
-0.07708576064982571	0.003231195962631194	0.09806215219471617	0.08279878305163312
-0.07917496983632809	0.0315050319451991	-0.004106632611514079	0.04675270646299534
-0.07208854152760279	0.03918819671950015	-0.04428044218859004	0.01299015828380829
0.0120339810951095	-0.0669036283349687	-0.03001656852143634	-0.009628105581005731
0.006194732679335321	-0.07308903100334282	-0.0159404844992578	-0.02720670774069438
-0.004361771755685638	-0.02981880733582569	-0.01136509044423959	-0.02340073594427363
-0.008285372786476191	-0.00253411930035221	-0.004365837576416506	-0.03277573313032685
-0.06230415013110082	-0.08041327614134659	0.04971233643544673	-0.0075730828989119
-0.04660504670207889	-0.04665004531251171	0.02948264267639188	-0.009820984166917186
-0.04439100573278774	-0.007931481195930139	0.005244289472510336	-0.01675814457725739
-0.03648710409647254	0.05082993732833894	-0.04573833656969251	-0.02297918251058283
-0.02817138451490455	0.1503059390114544	-0.06117246156463447	-0.0008833945158472039
-0.01910372809271781	0.151991676272715	-0.03643852204681158	0.02340896640176271
-0.01624138048787388	0.08151665546490271	-0.03014971440635848	0.02378171733878471
0.01710986414615006	-0.06780701328522194	-0.03175594217468376	0.01292865892799205
0.04820986891027363	-0.0762141871819976	-0.02010479502205378	-0.0005167774761713545
0.06504039183195773	-0.1110849109995696	-0.01887855189266293	-0.003525144441690224
0.05377301495642917	-0.06514402023387357	-0.02028216513873907	0.01730747071660017
0.03148581694473843	-0.001805835443637154	-0.0092796720710624	0.01242986751581348
0.01898903728534066	0.07965389100185528	0.007469460283356229	-0.009420204655143281
-0.007206833774751085	0.05908579283298485	-0.00717349398762305	-0.01161974705118333
-0.05406531861552898	0.008824381133790717	-0.02131459275182507	-0.0001840570953033856
-0.03994735938664568	0.05857678492816341	-0.0229875388152859	0.001281575077253534
-0.01893628010320788	0.08184892748210847	-0.002360738843712262	0.01000689069972874
-0.004011705898474025	0.05818432885236016	-0.006411557181728186	0.0203091841618337
0.00531623125599036	0.02192189191189216	-0.0380784462999648	0.006108900928290055
0.008481041470542581	-0.02155040489801056	-0.009189414209898003	-0.01059478676880969
-0.003877972791199131	-0.04617175535838243	0.01288779832927472	-0.01106611531318695
-0.01736447032893825	-0.03843419688820077	0.03185556232433188	-0.002001724933564261
-0.01209069362664784	-0.02001324500303008	0.04118586057471083	-5.09131323063765e-05
-0.008166306403441567	-0.03821758570205273	0.008568626686659288	-0.000627310655651884
-0.001490204319513733	-0.05752768642993535	0.002850808648475628	0.003895263856518818
-0.003324942097331577	-0.03257474004529375	0.001202137239840137	0.004316389113857559
-0.001383293120013384	-0.04827483426021523	-0.001253094462091977	0.009795383208032419
0.003704873906846523	-0.04623041703210533	-0.02047354817005959	0.01224741739421011
0.005891659569970622	-0.04210646541149411	-0.002467162642193965	0.02125107774924051
0.02263721418956299	-0.004338416840693475	0.03325580334947378	0.02910277528407915
0.02728399704006442	0.05054404615653404	0.03833149434324432	0.02557026649483716
0.01024251852833664	0.03583454981058153	0.008187444009654658	0.01381247526852802
0.02341868950957213	0.03011815354566191	0.007731926087874703	-0.005442113147275907
0.02986773665642944	0.06065073039455033	-0.01043063443301954	-0.01577027608207897
0.05404663600069397	0.05752084867418678	-0.018657121994918	-0.01196787979141702
0.05719491769935978	0.0130303298193029	-0.01709836460773788	-0.007498483210748849
0.01453251225376072	-0.02964761948369571	-0.008794613081439669	-0.002833283223338292
0.03579769866219105	-0.05590578713731346	0.008713619622455596	0.001004370032008291
0.06622499908216575	-0.08921204894882027	0.01043778147928142	0.004037060891666264
0.05416148275403178	-0.10460683470007	-0.02379232314060657	0.006163450040047828
0.04480430680398102	-0.09989371329170571	-0.02601530332788858	-0.001997365080180155
0.0347023558724541	-0.04747269885646637	-0.03398776692709431	-0.009987758032872619
-0.002267933402524258	-0.007591554366764692	-0.04655903454957085	-0.01529343657647321
-0.03929055875101534	0.07603368672603258	-0.02424692545354901	0.005145495493442189
-0.03453635042547787	0.1589834779211937	0.09026165822840952	0.01511458518970772
0.01292582791502623	0.177643183256456	0.1055920687816434	0.007727582801577487
0.05335875530396306	0.2145457547520191	0.05811994037701234	0.001665640872556249
0.0897612280521406	0.151108035410228	0.006228167660076336	0.002880746463834406
0.1075373714092581	0.07440808404438863	-0.01244821784334505	-0.004936746572005339
0.0897861250018842	0.0183794888991483	0.03344378679171842	-0.01399702641271602
-0.01336840252262576	-0.0245915609069027	0.0266619720273747	-0.00277417630290254
-0.1257331872717439	-0.0537668842450767	-0.01669688352205349	-0.0135639531632849
-0.07350230285479878	-0.003812603942721282	-0.0359320356929199	-0.02677320273087944
-0.05835985515749265	-0.00250227864378468	-0.01282543426725252	0.007019237910800375
-0.07304396589219339	-0.01487151151898994	-0.01755181431815112	0.03385863350876638
-0.03354389139211193	-0.003425216752750974	0.00239058885561611	0.05328178049403063
-0.03299723887825923	0.0008700125306396727	0.004682061627300583	0.03089161202572064
-0.06479735434303063	0.002593371417323411	-0.004712334210156517	-0.001984264888239278
-0.1064449671000449	0.008347341312207367	0.02885980795138174	-0.01934302133396079
-0.1234214356584757	-0.03736143019117449	0.03060584504520868	-0.03936824779114844
-0.02746858017490537	-0.04893988669742064	0.03042615058989144	-0.02570653257372672
-0.001565971465544876	-0.009883593533975929	0.00380723060050135	0.01447413768663934
-0.009962472999502398	-0.03768773714011046	-0.003094310430839345	0.02878174103359671
-0.006341041795370851	-0.05907794784691469	-0.02339727866032936	0.01691681927869581
-0.04620784832941179	-0.06249489902833862	-0.06046552094484674	-0.01554494199529356
-0.1211593277581121	-0.05951650342574559	-0.04284681652612399	-0.04769003170023502
-0.03845206628419372	-0.08166535772656179	-0.02805555697595901	-0.04413575886505913
0.0181484424105067	-0.05785919865059441	-0.03303643837791359	-0.04946254006750635
0.01522440004156838	-0.01650279843569425	-0.007074006034000219	-0.01424606324044543
0.02927216741936483	0.01744050582686069	0.009426484045881442	0.06939742480648378
0.02731677142240616	0.0146678522351051	0.007949666329884147	0.06770782673957555
0.03160488982223963	0.01401102357215545	0.003326520222348144	0.06748266948468855
0.0183282080976729	-0.01208474639919214	-0.009452332545654965	0.08060437964081228
0.03710650257410134	-0.01705379181714094	-0.006439655572452026	0.02802440406713597
0.0564153376514778	0.006733849405494563	0.00619926174978235	-0.03186143212393078
0.04216337648734193	0.01117204917277135	0.01332085956927459	-0.09619310576863035
0.008883366404355731	-0.00935900057264788	0.007252583476950035	-0.09596935631956638
-0.0193534387393076	-0.01441291893479417	0.001534107378128692	-0.0804719619883129
-0.02607298124129134	-0.005590741329187694	-0.01939602996808565	-0.0836556661627625
-0.02715412139584035	0.06920822861163439	-0.0275714944440028	-0.0628238111174195
-0.01348021707577549	0.07573753455967143	0.01088075512312938	-0.02828075532577618
-0.04783179164369599	0.05255821438681435	0.01468169749927691	-0.02046782251190867
-0.0282325435380147	0.03577751518770288	0.006273057526438706	-0.01773145045592149
0.0522297530870164	0.02085076711064204	-0.0002684383576322456	0.00058068914919345
0.06152103789751948	-0.009579042898192829	0.0183450345052488	0.006532174964349909
0.07217777914060361	-0.09798116569074208	0.01626473703855471	0.01842361895568306
0.07896363364825254	-0.09132935766873841	-0.00612720070331029	0.003715840200915241
0.06808057551677504	-0.0496649185277771	0.0003490686421756902	-0.003204186045397101
0.05028031420213983	-0.06824781044979966	0.003638915194425662	0.01443136431456832
0.03463139038095473	-0.1021993997245809	-0.02366963440471468	0.01037885199642021
0.02782116428498756	-0.08727844560822363	-0.01285867478253863	0.009571247034230498
0.01431277335637554	-0.0835166220896115	-0.02076716085106163	0.01174937860842678
-0.0006862648012401727	-0.06678401977147612	-0.05222298818670745	0.02433490627437483
-0.01276203051635546	-0.008105638255802213	-0.0342320323707677	0.02244059829322762
-0.01527891916524254	0.02419428310729943	0.00160416927364605	0.0165791811323029
-0.02313754868566946	0.03947582054795704	0.04357624489129529	0.03214234167170751
-0.03196530942111687	-0.002814638073232094	0.08086798635899317	0.04204479594818939
-0.03389651833864252	-0.04316568717167149	0.1186599647476781	0.02492647303673858
-0.03794755430235169	-0.04092801424067606	0.06933461095184452	0.01178878925737942
-0.04898602458923516	0.0004384592216388794	0.03313989503163418	0.01492910265096502
-0.03919145322248946	0.01415478262571206	-0.004578867502481399	0.01083822825509439
-0.02015564579178983	0.01457127776048214	-0.0297803023512766	-0.006315075287252245
0.03082991634730465	0.07517657908829169	-0.0248115319597418	-0.01582019605806418
0.05862523031698749	0.1402659432184468	-1.683496264477181e-05	-0.01926347732542771
0.03490431410686764	0.06895066374959422	-0.01708422949824614	-0.005084636433166119
0.02317859726627834	0.03702841554821538	-0.01792694556587566	0.004567785046406008
0.02245464822718857	0.05457754511052067	-0.01647710498859569	0.01019444422771613
0.01157542291585512	0.00792626035034707	-0.02336541803808337	0.02441111159885174
0.01779817762493866	-0.04775605626983376	-0.02651274517419677	0.0285531061207285
0.02017355893927772	-0.002689597512444555	-0.02291888543786665	0.02770271724156946
0.04375239726438987	0.07303205658505892	-0.02550291899322605	0.02306740825448114
0.03851598427414586	0.09879637733675115	0.02151025281893719	0.01238658439292276
0.01699353114984817	0.08445884862057924	0.02569428077393742	0.01169207448533839
-0.007380361193483178	0.02974756242389195	-0.001244147231272175	0.01045320496853721
-0.01585419513760883	0.05210362841032649	-0.03134418975364116	0.05248735646813128
-0.0255656250357005	0.07582871466167503	-0.0181625604538997	0.03707172931966213
-0.02361826242560235	0.09802390189338923	0.01197344319188146	0.004703198646085657
-0.02946960267575088	0.1142144417236068	0.001439066596395354	-0.0306383753349188
-0.03912807385076619	0.1317865776617617	-0.01498752968181474	-0.05112111003431105
-0.03953202291736793	0.1128109757267246	-0.01507916084914551	-0.03625924520021748
-0.02158150928579366	0.04904159086161056	-0.005683859921948559	-0.008129762885172033
-0.006323730384950913	0.003942393390398697	-0.04309251971605468	-0.001345327042318587
0.000166311429958254	-0.05171006568093831	-0.02130031983679199	0.0004418094497146328
0.005653733067294338	-0.05918603096828934	0.01543702809902472	-0.004784755706172713
0.03775367592277175	-0.08640953428262128	0.02083392580667319	-0.006065225885974416
0.0219910609475076	-0.1100525254821202	0.03299319971128224	-0.003672957362526944
-0.02132203728717636	-0.1261269821724898	-0.004524537374016124	-0.002729408343354032
-0.01927646397911493	-0.1078649319207972	-0.02766039775839675	-0.001329510679765895
-0.04077768254006706	-0.08433960406155448	-0.0410363800166804	-0.01461364559694191
-0.05837518330241377	-0.0605930931170475	-0.04421445357189364	-0.02040062894783766
-0.0631222701121599	-0.02233064814066162	-0.0388093812605892	-0.009409688929944669
-0.02581125752864752	0.01876334797818516	0.00521277765543583	0.06445911303595792
0.03517703609996441	-0.005456142904311825	0.05833359100751574	0.0468725424356304
0.06318144597236572	-0.005781931028265924	0.02186212223649407	0.02180994160209496
0.0005844464717423762	0.01255098810489027	0.02605620414926747	0.007662277404185653
-0.05682803773315836	-0.0183408143244486	0.02339804581383971	-0.04182037745363311
-0.04219979452224375	-0.02069683265150598	-0.0191109310955947	-0.02913026105383487
-0.02922922067225828	-0.006730997413246046	-0.01901669094528046	-0.02394037515600615
-0.006679838862793407	-0.01137507910954865	-0.006159431213021425	-0.02072584200261111
0.04738657603598261	-0.006157122809349188	0.008931906958272206	-0.02305024972893624
0.08360066598876591	0.006563099287566623	0.008716431366925485	-0.01188755214815439
0.06250867718842118	-0.02216387304114011	0.02193617975795272	-0.007471518464810908
0.02804882331340287	-0.04185856099446549	0.1064445921044325	0.01075955915767435
-0.03232047344042537	-0.05675584763969568	0.07240509365586092	0.01444602310636057
-0.08195961797353309	-0.05572076046306058	0.01261536800621068	0.003821898876747638
-0.08387843579949404	-0.04170931939397876	-0.02132701234310926	-0.01514408076195744
-0.0701710025854254	-0.005627304964885254	-0.01330756407645728	-0.01021779783264592
0.01972136678413721	-0.009995372276833475	0.008704134287001905	-0.006264366938016248
0.06165440135412378	0.01459713465558967	-0.01317001890744039	-0.01229923234677479
0.02590934961768187	0.003727087397364584	-0.01894233197044854	-0.01761776461264814
0.0217968550459647	-0.004510751049871833	-0.0008559021816177596	0.001396145461529321
0.04318521384318433	-0.01004297383728681	0.01581870574848297	0.01583961058246344
0.03867304072533656	0.0006739357902490625	0.01230337183483988	0.004023384145090888
0.05468513329039407	0.04232784177359768	-0.01322914124131283	-0.01394763396485652
0.01763892743293505	0.04462350009039363	-0.03615332206360711	-0.02665470427741486
0.002640332778999814	0.02793814382341529	-0.03776717769870469	-0.03184465332436175
-0.02888773607383747	0.02131377158140755	-0.01352288840636058	-0.01717743867650527
-0.02995005691419733	0.007085822997846979	-0.007082200885778502	-0.008481992759422515
-0.02542226082946462	0.005570621660034449	0.04362607639756923	0.02141564725133534
-0.002721913758157877	-0.01122784438094567	0.02189071768897437	0.01966654241859278
0.01131360612052222	-0.01605985976082991	0.008013071981862248	0.007370208251243743
0.02877026960559208	0.005561657966660408	-0.008520541501736719	0.003091483055769479
-0.005848567159570884	-0.002284197009087874	-0.01154191633612883	0.0131485398615119
-0.01480389239540118	-0.005856920052273671	-0.005267517318438457	0.02185080409033898
-0.02492358690257644	0.01363408976180593	-0.01084341316593115	0.01856001310563131
-0.0352157752850475	-0.006513432388370867	-0.009795253544379937	0.006034172990196371
-0.04135946751120039	-0.01226174362176095	-0.004097268496016226	0.006870844597865083
-0.008251822638906401	0.002963358757793998	-0.01858412897873908	-0.0003306588231945055
0.01295647250675543	0.01394671569123831	-0.02210313832094846	-0.006004265248669311
0.006074574258646862	0.01951971330983222	-0.0007215132513505116	-0.008904154593536955
0.02376201012185575	0.007536403822835128	0.006839338871989044	0.005260411680783578
0.03165707634934357	0.01217290550199364	0.01093751304256409	0.01211101635336977
0.01603201422331095	0.01366573568303731	-0.001846558248672225	0.01080868451592447
-0.02506464850865958	-0.007542344488780943	0.002412934240083637	0.003334705618009249
-0.04774711475158845	-0.02380217451142002	0.004080059732657774	0.002123150184073572
-0.04157762410237872	-0.04217984533459733	0.005405346669837913	0.0001052142586090289
-0.02731921758237616	-0.03995014327003386	-0.008654651959292346	-0.01386276731325807
-0.004782758288391555	-0.01951036474330902	-0.007733725386114578	-0.008701137089231275
0.04036115614954375	0.005414025377633543	-0.0004889995872019951	0.007799804796777081
0.002014222487275984	-0.009691221623642944	-0.004454589075554487	-0.00342215473964203
0.007428558305716969	0.008014887238845726	-0.008456732379820026	-0.0009655929032333232
0.01600787938627917	0.03117460149104519	0.001525770110216945	-1.14739715576179e-06
-0.005615460288948346	0.006313204326759169	-0.003686609809329363	0.004574063790041045
0.01851973029294998	0.04831395827213165	-0.0006317193901117016	0.005298665602796761
0.03149251118142148	0.05724428975130281	-0.004870115945480308	-0.002244918720982475
0.03286405298686833	0.06170206108780853	0.003955488070442366	-0.004940027696723307
0.001707800204107703	0.06879390667064128	-0.007990815254845235	-0.02233169361930283
-0.01519960959546229	0.1361226596412136	-0.003880583693016224	-0.02537949180294219
-0.007662106567767134	0.08981266238870066	0.001150835401602534	-0.0181319291553513
0.002128392518215646	-0.04894866654930903	0.02187446604756487	0.006267845139729744
0.0167348181338995	-0.04999673704275021	0.008050851365031744	-0.001899814957676422
-0.02606354928694817	-0.03210101875758754	-0.01295493947811762	-0.006765351724743358
-0.02981513801193077	-0.06409457424066775	-0.01865124524697455	-0.003295479066335526
0.004370040455036903	-0.09975581842525914	-0.01275218288000892	-0.0006622344998023796
0.02052697788724797	-0.09401985157337292	-0.01190289089950303	0.004023310114840211
0.0253866479434389	-0.03209888297442616	-0.007908392574496553	0.008090797853087164
0.01263081253944371	0.008847120988961628	0.002603511100921962	0.001780231369365004
0.02974074832290445	0.01254253892959446	0.02895406124538775	0.01103434705956663
0.01878576004372559	0.03682541112215323	0.0171144647714285	0.02541050420512226
0.007559357651892208	-0.0002806639370781074	-0.00487154858052188	0.01706470289176143
0.0008880193742653183	-0.01230956696643375	-0.05953160637788596	0.004877988983335958
0.01141175463558993	0.002809530254054671	-0.05380863325904683	0.01347626857763352
-0.007267021143442054	-0.008961472194287241	-0.04658719115837859	0.01467808757014403
-0.0005034851125823117	-0.02928115303847039	-0.01309245841049544	0.01429390531379944
0.008726019842237857	-0.03420613648099786	0.008531600258574358	-0.003543216758132546
0.03666667234089821	-0.03120612292465649	0.09949144064034213	-0.00372043497217118
0.01151981787260997	-0.04060963549335167	0.16601263259407	0.002513934396462555
0.01416125420296345	-0.02290746154462552	0.1050421050927494	0.004600221199634441
-0.0122908815917515	0.03099928032974131	0.03326598229382839	-0.01602113307070933
-0.002040724297720835	0.09492867752257972	0.008120540859502904	-0.01561950217027456
0.006503488803158279	0.09153256506986632	-0.006403057777903625	-0.01050338805313111
-0.03052793570329496	0.02558935946859501	-0.03286920318004786	-0.001497674375175426
-0.01265005364560779	-0.03292889662191971	-0.03832509036941801	-0.002037240348735322
-0.01310139681777345	-0.03380951176486873	-0.0300224275031271	-0.001687006593079079
-0.0319579353017074	-0.0112825614956633	-0.04132690236300691	-0.01018126130330096
-0.01064295262249829	0.009429910405499776	-0.0478557398535712	-0.002026529908567345
-0.004704082389284097	0.008491668176265295	-0.04459724608235261	0.004167678285073079
0.01247666837675635	0.003042054793596627	0.006880764300855062	0.006468575855639234
0.01360006651563421	0.02359305957890333	0.02677679713263986	0.01064301600516025
0.03322415780759146	0.06534797403882193	0.000704964889718834	-0.001388490130741958
0.02145956783689459	0.03844659745932594	-0.001882287674525123	-0.009734436416569176
0.02540954651470279	0.05676661701059427	0.00255924622862643	-0.002748909228241115
0.03239615859522658	0.07360048707059243	-0.01069729119114986	-0.003675650124324342
0.02766920615515202	0.07287493913943971	0.01479848381125882	0.01026396513863926
0.008331869965533464	0.04073235909268162	-0.00707458570717344	0.001283555986825037
0.0008918071911257488	-0.0310580583195394	-0.01947917124066756	-0.004197342487410121
-0.04353938473364635	-0.05584173766091138	-0.01626624693639097	-0.002868671170194924
-0.04010424580942794	-0.0701721103677652	0.002018968876518525	0.01368086152382057
0.001551868762585309	-0.07736145559325433	0.02521975450758963	0.01111301311692114
-0.009026420610058806	-0.08054766776570145	0.0183397340797143	0.008249862699896906
-0.07946224413575	-0.06193853283958313	0.00203502425090819	0.009307588702620212
-0.05928313249466906	-0.02432475194219703	-0.008011189243319812	-0.0003654248473519917
-0.08082527536251208	0.009914892282684834	0.001058085980709563	0.002506350684683412
-0.0613191020952425	0.01888918149602109	0.01396361515000978	0.05111769441298018
-0.02186166490564854	0.06170800765757389	0.006969617450372656	0.0411237746535605
0.04467736704769665	0.1024907764675223	0.009048269399381477	0.02715515796403928
0.0590897006396568	0.1106651952821687	0.003261166765724831	0.02925627670964649
0.02656139619697966	0.06223440590908438	-0.02671496684825429	-0.01893225396625365
0.04302498730751327	0.0393425654927666	-0.0289573720479462	-0.02627406896075223
0.07258222572500246	0.0247941139846819	-0.01141901857027317	-0.03040309294832256
0.0725600684141539	-0.01701256464776702	-0.005305471751812712	-0.05058965270398747
0.04518146669915097	-0.0602488795094587	0.03140902219754488	-0.0361989735028503
0.0480035879036784	-0.08428736153304925	0.05301466381157209	-0.01582552716724812
0.04212093211138139	-0.07584551935438176	0.04358551219346336	-0.02473615174067024
0.01638051523632442	-0.0696700289638341	0.0262118539898832	-0.02598124614342161
-0.05866915965748817	-0.05524244428405842	0.007561078973819118	-0.01083235997759719
-0.08515693029657019	-0.04419206821913906	0.0007693153406847163	0.002384085224716814
-0.06459364919613518	-0.03675004127434658	-0.003495687906402386	-0.0002643282423482695
-0.05938313483914159	-0.03011197613819734	-0.03597233918488581	-0.005582266171908611
-0.109688967483784	-0.02659491090724906	-0.05041363016639666	0.003259132467599762
-0.0718208209582586	-0.006269719888671768	-0.0266822517468831	0.00616803400613705
-0.02572452663852709	0.02590660002881149	-0.02350177220929626	0.006893432235510929
-0.01226444076878885	0.04269818674908204	-0.01698324614769399	-0.01940810603041645
-0.01807260744472245	0.01428294241656953	-0.01110952501927216	-0.01279411631550419
-0.02394277563339975	-0.03524480384501168	-0.003706542877333203	0.006359547482990432
-0.005573319207596127	-0.04663722719984333	-0.0007748519531551946	-0.006658235092211132
0.007116424464154478	-0.03118707908506578	-0.006155771898416025	-0.01191373711480597
0.02939193220755434	-0.00525239194896461	-0.01356233334675834	-0.003507792531635827
0.02844872234350488	-0.01806850131990356	-0.01820046476535423	0.003707972380988459
0.017810368490721	-0.02822308847587587	-0.01680575842197972	0.007145719418721396
-0.009735412595626582	-0.01060189198128765	-0.01171288821786722	-0.0005388361878196997
0.0138393453171147	-0.01118594218044971	-0.02051699211030347	-0.01020405854287695
0.05144883775671347	-0.006647581637048827	-0.01387648388862233	-0.008160991806068794
0.03921990902325982	0.01808320066556187	-0.009564449168632493	-0.00728483006022353
0.02997025765261375	0.04452541219720742	-0.01181517630629856	-0.0145962154513158
0.02075425500696511	0.01657356342831453	-0.001454315579001939	-0.01427734814132569
-0.009262697145012645	-0.003748208440876956	0.01120236857725028	0.003951215440660552
-0.02653600302532834	-0.01392952433569288	0.008117108314855542	0.03925929397668544
-0.02701974668251916	0.005099049003844474	0.01794485250041887	0.0302265441865695
-0.006943153139646321	0.008020807567687289	0.02870199016498559	0.008247762200093408
0.009982403612545168	-0.0596391334123151	0.0197971102864535	0.03815290617438633
0.05486921474376011	-0.07114285920599479	0.003760096567286754	0.05716294026619029
0.07922646408565144	-0.05550643083551222	0.003952403388549299	0.04968313606189267
0.04832004902567156	-0.007626949468089872	-0.01490069236469361	0.01813265343716421
0.02559891111627261	0.03127283826166359	-0.001415561813125433	-0.01912107717944266
0.005327507162119769	0.04514550870024719	-0.04483017563698272	-0.04371785966864478
0.01200343031401555	0.09504073272638797	-0.03249808221702188	-0.04883119195762916
0.009899019658667775	0.09029302226954088	0.001376606090141798	-0.02589010786416194
0.001214619260995244	0.04382418280367334	0.02004063764997847	4.376342516873263e-05
0.005981233478058457	0.03744406008792667	0.03061571454778371	0.01365297910327101
0.01250968681184788	0.06463539808907927	-0.003021447364101345	0.007330607801274493
0.01575097445970163	0.08043123806228351	0.0468025103014845	0.009777766882354651
0.008058999670412646	0.0211639677616927	0.03925956680614988	-0.01242650764693929
-0.0003119964494400683	-0.0002130988525772	0.01447637681295738	-0.01082351236992699
0.02420777729393467	-0.02745706254482333	-0.009196255745811704	-0.004160006872610546
-0.008911818182647682	-0.04666792158599537	-0.001772320382185061	-0.005420258098143124
-0.07047453473976628	-0.07435990864315312	0.05175188206407559	0.00449033124791986
-0.0559587331630692	-0.1644945016827209	0.05337063702368224	-0.0009871853137735373
-0.0185918235669586	-0.1387585777205354	0.04034991596477917	0.003300041291248713
-0.001506558953748685	-0.04244885198624698	0.01795343032530242	-0.005188597349383086
-0.01035775873235096	0.03215428971169128	0.005452521222440321	-0.001405486131692337
-0.02547715761605978	0.05636435994981574	-0.08271582140332863	-0.01715870065204479
-0.01861060181019852	0.09936828044400133	-0.08228261325850179	-0.01496805691406282
-0.005963547155795969	0.0866910576735641	-0.05045121731675232	-0.005864467900178803
-0.01618556693528017	0.07328274428193705	-0.006294198162942746	0.03468771623564142
-0.01980159856417956	0.04078561181200262	0.02288080045727564	0.04864975124104747
-0.0485299758341644	0.003218211925490914	0.1073755224987153	0.04061339292009701
-0.07498948398346679	-0.04326421871840768	0.1205048371970091	0.04887601394096727
-0.07862044497830567	-0.03973927617593973	0.06000518516135461	0.03564452494296261
-0.004281643598380937	0.01062120228438858	0.02776292533604098	0.02194227899384318
0.09947126064329728	0.02566854195710492	0.007976008701410147	0.007358685688726661
0.1447381347519822	-0.01202969905022967	0.0001839501826906286	-0.02824436889321954
0.07091347256337094	-0.02309565144707602	-0.01239784108408686	-0.04320115063353879
0.05686345482673683	0.0287363254006174	-0.03088266668600485	-0.06535579531498485
0.0291652927002335	0.06330165794770198	-0.03009861119938669	-0.04121898874315859
-0.01074653663092408	0.03157024102936157	-0.03099842019847195	-0.01556412998872296
-0.009650731358374241	0.01223072843073372	-0.03793542069708387	0.001002827903188704
0.009086073722068759	-0.006531775729159397	-0.03058706525023723	0.03631940657788627
0.002962847579164284	-0.01348968136998516	-0.04759489603905691	0.04234012999851394
-0.03741018492428776	-0.02063176284694758	-0.02763287836898672	0.0033430757130381
-0.0350748126806693	-0.02461394397284951	-0.01620882423319175	-0.0166179864814308
-0.007265507583569954	-0.01319185172347459	-0.02206208799994465	-0.01685893136793658
0.02074805099140841	0.02480507507449872	-0.0351793557286474	-0.01232731415956026
0.03429077435809065	0.07499246866647961	-0.03777797136563146	-0.002250455010334975
0.0221313868160121	0.03751521827548144	-0.02876221973423937	0.003533666979325442
-0.01923201129990031	0.03232496638126527	0.01863052254230633	0.009260829151891858
-0.04168370200184342	0.06882043336861196	0.07902705744434617	0.02718683299684931
-0.06256848366765744	0.06767434377263246	0.08145562916714855	-0.005660110437386939
-0.06059163405981017	0.04647837879768834	0.04493473236072778	-0.01085130984138314
-0.0384096853890163	0.01117083922449608	0.01649456312639002	-0.02383009037463901
5.838293602584391e-05	0.006099571899548452	0.0001066996922305493	-0.01281496436675188
0.01953757185928966	-0.05437094156669207	-0.006192182789098786	0.0002557989875869693
0.06311847661877383	-0.06267068124572274	-0.05439246090596549	0.0008658207282186864
0.07463395585539725	-0.05032689764579362	-0.05923404992467604	0.001016380440925103
0.03814881991725712	-0.06563594829224251	-0.03273698268773979	-0.009700971976855259
-0.005132402429416954	-0.08362251967088991	-0.04105288540704306	-0.01072807735437627
-0.0254822404735431	-0.04115858718214657	-0.03812994686185966	-0.0001640424202156904
-0.02820883520009943	-0.02814508415071441	-0.02597443057034094	0.01122561809180025
-0.03742373564237708	-0.04794718209957478	0.03635534319676836	-0.001570465880784478
0.005065181864380358	-0.0365779050864378	0.02312649132743824	-0.01184061681163731
0.03450731569643586	-0.02326865073432515	0.002564866721165606	-0.01609975385684386
-0.02117275683201409	-0.00113058180812877	0.03177201066809392	-0.01029708811079714
-0.06100642601920404	0.002999865680416535	0.0279931079656598	-0.007053717316867368
-0.046001341893301	0.1495493378868555	0.02769275414347246	-0.008222599136036787
-0.04900271431842135	0.09975469034072194	-0.008253463968552236	0.002503941869332667
-0.05682023768633	0.0501640164393313	-0.02579577222067815	0.01952525401179848
-0.03839487145794065	-0.01987850450133611	-0.0152486943515607	0.03938359020222656
-0.02631125540466833	-0.07964472635145821	-0.0003226596120971332	0.01389319511118562
0.01394995094359261	-0.06932468928529609	0.003769394224921978	-0.006650628953887802
0.02552447569678304	-0.07584321460414782	-0.007378802606038563	0.002539370336999938
-0.008455243620288098	-0.04023580135873372	-0.02410501124890984	-0.006409238261092189
-0.009415884306523828	-0.02378991524283043	-0.06667806684898982	-0.003935151032869388
0.02077183200170794	0.01182226651843652	-0.06500601481691035	-0.013382630796321
0.05773088403795663	0.03325245054764445	0.01510540360471841	-0.008511686012865052
0.04145419417094979	0.01882016334604128	0.0158646379991647	-0.006319582108561011
0.04034358830234579	0.01527335463489349	0.01706082994646496	-0.0100162506745485
0.03163033030936455	-0.02863746290108075	0.01324390328538131	-0.006760827833628929
-0.03444310735511248	-0.04634333869866564	0.01945159204137955	0.0005984700436296943
-0.0003234807225396899	-0.05320164113584194	0.008176532799257459	-0.006930701321564064
0.01762208822556292	-0.04136539848468834	-0.007195153163759852	0.006696942004178735
0.01854951864631427	0.01403650594277048	0.004508638727616331	-0.005884503259587705
0.02225119489243546	0.0408227437612925	0.01817469834361392	-0.009455233155680597
0.01384626225149848	0.01575146301425221	0.01966201827835036	0.002060868041890911
0.005530056676827988	0.01520638850168392	0.01567097502609971	0.003091212794243283
0.002171087473143743	-0.001813614871467452	-0.003901770200966097	0.002166516536667744
0.004988799848326115	0.009367410235279816	-0.01023987734596574	0.01111587210149861
-0.01039285699954198	-0.01112688832132962	-0.005945760358620356	0.01121491872543189
-0.003239463076598931	-0.04436694617605376	-0.01661479540520906	0.001629267832771096
0.02401442072395292	-0.009366513001945614	-0.008596349694691051	0.006030095682589351
0.005003111425817735	-0.0003042036298455778	-0.002384024763025805	0.006068251933515232
-0.006463950749823292	0.01212792675019599	0.04583239853700313	0.01824931149095022
-0.005798903036165677	0.02626909898575211	0.068257123168124	0.03120627084771626
0.004432204996385952	0.029701719945455	0.04256103649006843	0.02582353241236155
0.01012814012270329	0.02270673400728902	0.04146470079893393	0.03658392883453573
0.00980362500670726	0.02004718156475791	0.04028999101410054	0.025969704050695
-0.003015214481409732	0.009356929592856472	0.02017141964460707	0.004030458759524074
-0.0178074567204005	-0.01805769273703879	0.003368090433523693	-0.01789090334166879
-0.01892652968673154	-0.0307885494551127	-0.007739529646695333	-0.0511824825166166
-0.0158108718553833	-0.006023608366490163	1.234895777504333e-05	-0.04459272377479791
-0.008930999365992174	-0.01157791541175892	-0.003794455967858716	-0.02809281123948944
0.01205004317338018	0.00141452869921474	0.00570995123897957	-0.007396555307294574
0.03116454966168153	0.01238206608850907	0.002041410113118889	-0.01321825876826193
0.06300813867226512	0.008696014696529889	2.485914431401981e-05	-0.006272300128408586
0.06703005116491209	-0.01261138253568491	-0.002738946518183601	-0.006928904268096596
0.07228359726683112	-0.02054057255768814	0.004628333066537304	0.005530494029204042
0.04613403167363892	-0.0114555908126952	-0.01021526550054998	-0.002175789960832673
0.008879282603188439	-0.02096684611438305	-0.01262759268868222	-0.004656727626822609
0.001965297987687476	-0.02171749212404464	-0.00160721235024137	-0.0006243331165268673
-0.02304355803170607	-0.01538911078578402	-0.008076482527736899	-0.004861923231517528
-0.02805257618133434	0.009004013091975786	-0.02769472680097555	0.002414472702584732
-0.03211169141394534	0.04127253448328025	-0.02831393262521274	0.009845111186969764
-0.05890847965121256	0.07674678089238511	-0.03062245978084847	0.01171380772314786
-0.02012302619348061	0.08994469646637322	-0.02768977633968339	0.0160748287614122
-0.08778243400532819	0.07266716244788007	-0.03045594392617943	0.00215061086224045
-0.09046729552809983	-0.02326385085322989	-0.0282796678879118	-0.006204938239154029
-0.07729575245535163	-0.07851445366197478	-0.02195727635667003	-0.0053964685229778
-0.05645460074801462	-0.1006753834574165	0.01602475139912937	0.01711613682531143
-0.02140167063634926	-0.09220206408462871	0.02667304819303988	0.02657736011031894
-0.008676253175797606	-0.07163854613470323	0.01307168226765326	0.01546208054405959
0.01274638199161016	0.00821586350626357	-0.01348770311771248	0.0009413509159611139
0.006041575412883583	0.09177989483215904	-0.01688093060535667	-0.01354912190522922
0.005664509164376859	0.1830446516886106	-0.01757800527315277	-0.01107647029350603
0.006351003151555994	0.1505933127109916	-0.01768200550938574	-0.007874278993180578
0.02325180303086352	0.09280472467300437	-0.03158358267242199	-0.03312433652800215
0.03352196283174564	0.08443589731715515	-0.02992386437561381	-0.02281583413529902
0.04953937063080904	0.06333412279486356	0.002950077643770178	0.01032659561187686
0.06432261300504725	0.02244767884404765	0.02575037172151431	0.03530103022056826
0.05162408507038551	-0.02243817738087372	0.01518668288786144	0.02211594531852579
0.053083095075912	-0.006181718733306314	0.01547523846395399	0.03410321685833372
0.053907889423287	-0.01784697243472076	0.006460125278144009	0.05675486136777299
0.04044805430196773	-0.04818291085555618	0.002659868323534927	0.03784581300157131
-0.00687462082065778	-0.06165705302025822	0.005837398442289609	-0.004175514674546949
-0.07063439497795661	-0.06459070241638085	0.002203850864846443	-0.005902096379542853
-0.1085933809503684	-0.04594875455909129	-0.003028004804911377	-0.0213309833106492
-0.03507797180414457	-0.001415066729660997	0.01259690230057246	-0.03438317407121891
-0.09001063401647877	-0.00503917254918681	0.03519167739476405	-0.02581721652681285
-0.08542576693729338	-0.00647302871042376	0.02248531755965143	-0.032062560554963
-0.01485053806346747	-0.01966165482582202	0.007146481065342114	0.001739800929884763
0.02842159222108562	-0.04951293107692083	0.0004657218632215594	-0.008753798345541708
0.07639011473251162	-0.06505454722634758	0.01990998594775566	-0.01499970882356753
0.08480384247550965	-0.04948928308357051	0.003611973837537206	-0.01566728468924639
0.09725415795897381	-0.008530463820139715	-0.03023832610447599	-0.00771013930198839
0.04047406741718822	0.01378258750258112	-0.04996274753815343	-0.007037440127681244
0.04462222133658986	0.03318778024550155	-0.06055604414230824	-0.005679790510335007
0.0578955207406139	0.04846811962349807	-0.05811736588814961	-0.01091183796728179
0.004914404442805601	-0.0009751141223031516	-0.03436563616561483	0.0365838471233547
0.03806822940527761	0.0007492728098089502	0.07556515326548453	0.04946205806161177
0.04986490741340019	-0.01798575905139398	0.08324462141819551	0.03061340750457188
-0.05222979457527299	-0.0314891855863697	0.04873753617994259	0.005626545595122589
-0.08122440217116092	-0.02898078943682568	0.0079645511568164	-0.04886992505491404
-0.05666893321198303	-0.03320633947438076	-0.02003334636849936	-0.05566542260501379
-0.05462777947490572	-0.04417866921550408	-0.01800162492025364	-0.04974135186744078
-0.06845184776053967	-0.02952382580794279	-0.007492517927884327	-0.02412344857519606
-0.04602593221871316	0.01620741976244635	0.02254069918499743	0.00467944724001949
-0.02049535227831392	0.04732288015663394	0.001641644503348282	-0.007629368027836913
-0.01588744497015408	-0.004131982872299312	0.007642457446878884	-0.005815680007760326
-0.008116330490693466	-0.01695839494217234	0.04197725633930666	0.009631332125521332
0.003286610387107014	0.019024096569771	0.04848719637450898	0.01018850456877651
0.01062659161540432	0.0243676706501689	0.03988265186575393	0.0107563157262396
-0.01045039153538262	-0.005893266079726818	0.05152034261927649	0.02700396322875568
-0.003028165184708873	0.006584720197053408	0.02178102048012365	0.01003921255785858
-0.003632323745947292	0.04947889504508979	0.002787261047763132	0.006597284865275428
0.01121753105396922	0.0002031858710043279	-0.02629267839724117	0.006065525598714962
0.004369218695676458	-0.0272406778914461	-0.02340127502804409	0.007040952154828185
0.01413416049332188	-0.01692014452412482	-0.01546781276105661	0.004687770239428252
-0.008698272236500807	0.000797070011400862	-0.03330421015546172	0.01303916336944108
-0.02262971642195161	-0.0316289369654859	-0.03188196584939894	0.01793434707031286
-0.001093547767015485	-0.07364724772176459	-0.03820086925557158	0.01103116215425816
0.001541057422915134	-0.112370751604246	-0.03252190252735904	0.01322814911929053
0.03115100577436003	-0.085544097550129	-0.01740975967504275	0.0396673126260681
0.06976483278708244	0.005143523903070346	-0.008643352432674679	0.03173974316207245
0.08762251595248005	0.06201895761355077	0.006023072078471183	0.007282810802386958
0.0553941406358826	0.0727530257449103	0.004523440331424653	-0.02000995060248269
-0.0007046191451080439	0.061894225346233	0.01259623340055388	-0.03462186193694545
0.007774901786397011	0.07019723372225262	0.006921842954837228	-0.04593276208098482
0.02382737001325559	-0.03057456890396656	-0.01338337968357681	-0.02463963385150744
0.03213767211695338	-0.05993257304501343	-0.02703193411871142	-0.01129724554702463
0.02998239904267204	-0.0500092169038472	-0.01802019791164602	-0.003812866899027225
0.01826611013890341	-0.03104022556298547	-0.03240208992521088	-0.01395501043755503
0.007152057563544778	0.03112361833581895	-0.02034174140008296	-0.005132493465376013
-0.01596862404971526	0.07645467867429964	0.052315217116481	0.007271095275510853
-0.03491214073349139	0.06427941348573619	0.07636202941479849	0.002722713810163133
-0.04376442478975656	0.05594474864599504	0.04375847212540788	0.006629553002071998
-0.06729497457827559	0.03477691822254096	0.02657275899223634	0.008898161099384608
-0.0404329708554072	0.01868772403115513	0.01297104502653513	0.0117023222836014
-0.01247794318692898	0.001400666264578818	-0.01330120094037635	0.01463959867680037
0.02354645617007104	-0.01259017434860425	-0.04785734781484365	-0.008363458048525339
0.002288317624342269	0.01150860739496521	-0.0584944094353539	0.001045821306748137
-0.02231298216019274	0.02801839616158045	-0.05086300156335898	0.002801581700430556
-0.04131478469710825	-0.004100800849437911	-0.04548325258126756	-0.01046422617103816
-0.006619221500282603	-0.001350698268590797	-0.0339761369110437	-8.063960595244891e-05
0.03033468680844647	0.00319193432038969	-0.002151991834769175	0.02581068493936509
0.004710357734851846	-0.01672874462604194	0.002982140591907425	-0.0003134280728899097
0.007070098471700228	-0.007290716147037178	0.006976936460418957	9.67447338026545e-05
0.008472626351671179	0.01180217554099904	0.01508290400898935	0.01507846054328072
0.01248860207706637	0.03801524401478171	-0.003762863992381719	-0.002387587446321375
0.001803784643310735	0.02260511684702378	0.006499113405462304	-0.003857994239299386
-0.03037791263380957	-0.03128766325441647	0.01026187812800303	-0.0001710578915508379
-0.07446407178933687	-0.03198934446086065	0.013340082714633	0.0007315674046357314
-0.07081744435097545	-0.02451676367427596	0.01570203950888494	-0.001206254654905105
-0.04623673816015369	-0.009268783033328938	0.005036918881371786	0.003829505793986457
-0.007169284238785392	-0.02414438507026702	-0.007625578769640538	-0.002384857071782706
0.008371078431989303	-0.01493082855522872	-0.006984751304896163	-0.002404776106141296
0.06745131213706967	0.01973429925945876	0.0001176790003666545	-0.006051332697484529
0.07822792573214697	0.05181203656559644	0.00091489309608944	-0.01044700341470401
0.07548561307120437	0.05525124211335931	0.008213121470949353	0.00409057538655006
0.003911989822684784	0.02060547229361675	0.01225421888796419	0.01542430019724213
-0.03575525532397731	0.01711888255483536	-0.006218258332540148	0.057834307778949
-0.03364841451400922	0.02514060561041529	-0.008014599879046099	0.0540029020024139
-0.01590181202090456	0.008931596726267997	-0.02491666017631265	0.01535226971540595
-0.05099441555599108	0.008298218712355247	-0.03188788786082332	-0.01669599494714582
-0.03158239023759183	0.033428857162765	2.852717922274416e-05	-0.03056940851787711
-0.01429221870226756	0.02849435310549877	0.01613710229944438	-0.04597235990362396
-0.01718624114700293	0.01860338291328442	0.007470075846749863	-0.03096165742904187
-0.008860067830130765	0.01889494829589307	0.0463345988102374	-0.01166328868487641
-0.008071767763970165	-0.03200917687609497	0.09103236024151813	-0.009257560576167877
-0.00432559569288609	-0.09061776551775011	0.08820207521853862	-0.01310922945528004
0.007077112156784843	-0.1009747903432384	0.04134224718320199	-0.01030135062522634
0.02027473294428795	-0.08569643256158228	0.01451750132957248	-0.0205121265392374
0.01947022870732657	-0.05408486406128333	0.000469017716414617	-0.02248644728538834
0.004393675838739657	-0.05276450213107142	-0.006459402853134929	-0.01323621363018804
-0.004015179448776789	-0.02843448723630089	-0.009436057722650182	-0.02642419094509506
0.001856446504483651	-0.04059922695396632	-0.006975008127626248	-0.003136358135062559
0.06370295609725514	-0.01743774352827704	-0.008503626331136469	0.02401198193474912
0.09411728403789901	0.0175468073283121	-0.006933189051597247	0.0006394424189989309
0.06791750802514615	0.0534527801419717	-0.002901912278390124	-0.01008002438693572
0.06165800678442407	0.05039141619044901	-0.004700082195090978	-0.002053992151453974
0.08232422548661909	0.05332209680844155	0.005033419602490822	0.003830609691348649
-0.08087606365492525	0.04109891644195861	0.001764346464052088	0.004778184489254019
-0.1143123542855944	-0.0003309195982680389	-0.00899632427724335	0.00172432617976939
-0.05874701840491035	-0.03867433423013556	-0.0403218090188022	0.009751521229437059
-0.02938188078080075	-0.03428913948848783	-0.01002284713273935	0.01210785167877978
-0.03828631326840858	-0.01441338502833036	0.001965504029090913	0.02501911983861585
-0.04887818300251704	0.006877380958743849	0.001982277990910399	0.0524699948258486
-0.02535361322844141	0.01301103805557488	-0.003026323201623412	0.0537093528931346
-0.01021341221541591	0.008457175470509691	-0.02298903842730089	0.003978030737679282
-0.0006537038465724452	0.03441689511824309	-0.03933803517841893	-0.0377667452533752
0.02338662741357463	0.01843486556946954	-0.03551050541340519	-0.04332367178236807
0.04100579815520825	-0.03097622258900889	-0.03454293166693698	-0.03192720412355415
0.03331563958739095	-0.03122735104087513	-0.0358251106171637	-0.02189409654444162
0.02748114808451171	-0.03546996008212511	-0.02311418125655667	-0.00855063154653537
0.03743180082222194	-0.03604837154094778	0.01079836143078677	0.0109045632232102
0.0761276014177384	-0.00595686040017366	0.00989393123865985	0.01539473024820561
0.02169156249574074	0.004568919895871949	0.01929343263315707	0.02691486822162485
-0.02431294574141016	0.03714773165247715	0.01148020113211746	0.03675774685464862
-0.1152775862530661	0.05856506146021132	0.003647990721177385	0.02205656612949727
-0.085009270029915	0.03311566332153359	-0.003646563360637952	-0.00877276770915273
-0.02578016971094695	0.03255366315232438	-0.0005348451798491429	-0.01658116459859932
0.009191993228660001	0.01202371311973659	0.02373951733157613	-0.0008523277993678919
0.05439335433567365	-0.01530778456172553	0.005599906801001733	-0.000631783119041631
0.08726611718094197	-0.005009325898995458	0.0003262692533121342	0.0156459306325533
0.09581245526391721	0.008348953625256639	0.005571436593604733	0.08200657442407447
0.09548755022469269	0.02592522409039239	0.02783629271452373	0.07258761552673244
0.07822316766635658	0.03104313494939388	0.033224233999816	0.029981133826434
-0.01216226191942025	0.05809734086877312	0.01446571520464658	-0.01261735293231667
-0.04636653220949438	0.05174730303892092	0.004559629847718238	-0.06441341885885475
-0.01783845734920146	0.04255749018589027	-0.004779385770055496	-0.07525735807767968
-0.01921407089626986	-0.002337286402515581	-0.0178128042139537	-0.07156441442353632
-0.01858777052587919	-0.02995453688166173	-0.03347659355713448	-0.055728439516017
-0.005388076360565134	-0.02889046181975672	-0.03384639039474881	-0.01853338274998481
0.001614254110830541	-0.02721262974936467	-0.03849616334925152	-0.007407487348908445
-0.04097332825560845	-0.06101378372476142	-0.003423728332706129	-0.001797459819428825
-0.06475954022856165	-0.1160172603517521	0.003017173576483539	-0.0105363056772419
-0.01123873003104392	-0.08497387426130883	-0.008315937449437113	-0.01091546145608246
0.001541567704363117	-0.08363378381727957	-0.02645944117169918	-0.008947720311062909
-0.07759848125485133	-0.08467021626858638	-0.02774818438572376	-0.007928237186956368
-0.03828448450838658	-0.04476988912186615	-0.02765244255827988	0.007607618598949388
-0.003612649341797237	0.004003711594211428	-0.01578207614668729	0.01569736560035707
-0.003687342541083365	0.04194194537241408	0.01646215683471876	0.01449593094833928
0.0206142025387115	0.03374090458473902	0.05576364795110986	0.01479371935689456
0.02480634192443097	-0.01385040899539707	0.08207669015022782	0.01306938433159299
0.01279575517868266	-0.005860691925940424	0.1163642703854867	0.02425193460886508
0.001384284469063008	0.02742403043060908	0.08439220017501736	0.02012853104155684
0.001912057408423777	0.05079582723387236	0.03681102341161778	0.01535729422629579
0.04615227715879093	0.0829220153277356	0.01712523621990123	0.01092000422435885
0.05972557229996353	0.09368234921437835	-0.03931254482465357	-0.003199129533530336
0.01314417691934469	0.125801387027993	-0.08793214159681506	-0.007669534014008147
0.0007831144954361261	0.1093083464003311	-0.09999933024152943	-0.02705836304772361
-0.008662830070762599	0.0735187676582917	-0.05784202014570036	-0.006281348112358452
0.002629447558937323	0.02727286169560067	-0.04367724541284316	0.01363106631240713
0.01440262900231351	-0.01386142253231969	-0.03395501307700395	0.05629206760531648
0.005571631956710831	-0.02650062773873582	0.02942871919543744	0.0543655563485133
-0.001587478881016382	-0.02849721388953598	0.0929440110759784	0.03485457072496363
-0.01539900594188782	-0.04143616061648239	0.05352398545924494	0.006789712857437505
-0.009064155462129218	-0.03864057333224182	0.02638668745108746	-0.02788708297916217
-0.03928224443868499	-0.05446408545809331	0.007790041611420153	-0.04408978049548246
-0.05305446701267184	-0.06821142450172439	-0.00270520375620385	-0.02915510109813068
-0.03312549992521287	-0.06991806904543678	-0.0001400154169816383	-0.006083444136035758
0.00192099975994614	-0.05740938254954494	-0.01445900152164283	-0.008800427073792694
0.01182646966112401	-0.04348119497392077	-0.02579615817032482	-0.01314454911713606
-0.01343841280093576	0.01427765313562061	-0.02484148829533855	-0.02769993426507843
0.009592049046040772	0.08416394767393194	-0.008398672774294713	-0.0268002674891351
0.01462470047332953	0.07534138175300362	0.003597708254970282	-0.01349961479797023
-0.003889479932540526	0.04854337826024323	0.004755191191271244	0.008927071859368942
0.002897977240569375	0.03991570566405244	0.002721873425097647	0.01827362797388853
-0.000713814102046546	0.03771771706556923	0.005282287281372144	0.01373591606841692
-0.03919693090105685	-0.01596211620445701	-0.002274346161529595	0.01264754019469628
-0.05753849606657437	-0.08403225498587817	-0.007391392803958935	-0.0003285502631785636
-0.03962060319391457	-0.07244622050747726	-0.01482660868197345	0.000986014598980543
-0.01666271766817774	-0.07883732581855608	-0.00245858395463856	0.009852035031262687
-0.003497178345969103	-0.05451771516304899	0.003035056466044468	0.01517981689739763
0.0187047049102121	-0.02095992172882149	0.008699826376437729	0.01377900614431977
0.02302790810399856	0.00766937891677498	-0.002412451439328857	0.008678665157341744
0.03309786488379707	0.02695609098877661	-0.01037185605783437	-0.008229897324541678
0.04805516894673734	0.07462754632843573	0.001549598421991002	-0.01236286654761878
0.05138190903677309	0.05575118236047747	0.02969216878004052	-0.00469028676360793
0.02889986165344061	0.04095055502445979	0.01830875527248138	-0.006556196013017291
0.01070782508473791	0.01951778085912687	0.0121737885930764	-0.01117205407867083
0.03722467991456045	0.01100362625702957	-0.0009511318336529397	-0.007274993838124568
0.003090457707223988	0.007158840221354486	-0.0219481157060249	-0.005591949744715377
-0.02985977234677154	-0.0127912910647089	-0.01001702855586907	-0.004359310439258723
-0.04082180729634073	-0.01721973077228501	0.0001816398797949937	-0.002229280458152189
-0.00983768310543686	-0.03583538594697312	-0.0248712790583726	0.01257311050704918
0.006613943760732566	-0.04030132598389555	-0.02935902937077256	0.00614291812970703
-0.04382402018616424	-0.02306580336458024	-0.04172069705526445	0.0119265116453671
-0.04298777957454217	-0.04312079481256634	-0.02025626512237897	0.01359375895347487
-0.02433148027509215	-0.00968553063838243	-0.0232685252608025	0.01184934092150452
-0.009832733392430801	0.03606510869092126	-0.02825459299902774	0.007833372461923558
-0.01837951446968576	0.07269527524949058	-0.02936377739295524	-0.002477035523814972
-0.03362635701774599	0.08121855141270744	0.0008076437849297423	-0.01333557050201109
-0.03530661113929443	0.01168738852733122	0.04737127754649843	-0.0006190128359272178
-0.01940577355749855	-0.06587947218349222	0.06487687934026554	0.008150946194034295
0.01390213714461048	-0.09727200853620968	0.04440845147709687	0.003229088192598384
0.02216290717141079	-0.09919110630055687	0.05407470850478906	0.003300448637895067
0.01286707348143199	-0.06117166467585039	0.05492245788672505	0.005101145768141017
0.01949202512763635	-0.02245425943989598	0.05595839622274872	0.01852706747872817
0.03864915990293123	-0.005424411894225435	0.04298223024720891	0.01990964815575558
0.04046117372373153	0.05613340941838287	0.005825008647427095	-0.01145761590817774
0.03847262253744992	0.08526365835959396	-0.03194657607381054	-0.03624063916037269
0.01669410263419469	0.01014024196674736	-0.04820151644642788	-0.006693735003740573
0.01129103624420279	-0.01926471639822482	-0.05516499467452792	0.02932768752459263
0.04484464746407615	0.01770223456162951	0.01043518054468737	-0.02127649851995584
0.05992995926338024	0.06040607939025324	-0.002256708450004867	-0.01694645051533926
0.07083402653314218	0.07763655318622346	0.001027161662515232	0.003336490509372005
0.08278149234196136	0.07088665707008272	-0.006349023695598151	0.00536953052662388
0.05053580401390942	0.02933865784996011	-0.005591147144222971	0.01543236897985839
0.03033231779696543	0.01708903224888364	-0.005997641529098104	0.01012608696206269
-0.06485357672722267	-0.08272625115160484	-0.02467714589395794	-0.02030389508723565
-0.1651942545753174	-0.1529032855576583	-0.02274870102092572	-0.01938638514005166
-0.09280364793804427	-0.101262101886068	-0.02490747788261143	0.0008791329820884372
-0.03655208416303878	-0.05432382021541723	-0.00998892529212426	0.03307309232364479
-0.02128064344953488	-0.04969580031492345	0.00778090932965886	0.04615801237439814
0.01185299222027669	-0.04665303767959321	-0.002753308010724596	0.01207823028019916
0.0488957749042409	0.0356612207049949	0.00152103614694597	-0.02452895403843918
0.06461868833483325	0.1323790417912952	0.009631119148167623	-0.04802274129074424
-0.01401672282719528	0.1506787049404232	0.00936338483543101	-0.04387257040739328
-0.008154870010346413	0.127462949195443	0.00405120544901009	-0.04713479103162779
0.0020089597653071	0.1310770596643344	-0.01741934278368969	-0.03495302268655314
0.0227740319633539	0.1165909156261951	-0.03071480729907916	-0.01766832587552101
-0.003119478028099654	0.05223511747902382	-0.05233163534324444	-0.01052384095734973
-0.01307200974249188	-0.02301176939716042	-0.06210606990584804	0.02582639088288303
-0.02088919552124607	-0.06896360772474618	-0.04826766913641307	0.03607386725466222
-0.01128580712568588	-0.05727122061343375	0.02453209433838341	0.04399321593416312
-0.02056834002514952	-0.04682461568131044	0.04187353728962755	0.0205957720599289
-0.04009855834958852	-0.04336699872416535	0.02916112375029817	-0.0236963123963945
-0.05138247561114234	-0.03079722969395819	0.03299321244476979	-0.03605219697795904
-0.04050990347674747	-0.01601669712436571	0.05375190705586189	-0.04758818772249147
-0.01503248417417267	-0.02701387636723442	0.02307064260036301	-0.02324297882591033
0.02012781652708803	-0.06349211734244981	0.002079893519736944	0.01806712356402743
0.03731615138131651	-0.06294770015909035	0.04334488195837359	0.02244519769853276
0.04042657031409466	-0.05687027185172961	0.02815600431392362	0.02053027366038594
0.0463992028055328	-0.01795318604506273	0.002050372916761959	0.01736181773526226
0.04367723799294696	-0.02399830324398749	-0.01686995996212409	0.008930053890594699
-0.02392341460813655	-0.02135485426272663	-0.01623097223172848	-0.003960045134877277
-0.01845949888043318	0.005948156761435216	0.0007538697708918066	-0.01487339934190006
-0.01250178502110101	0.02870250409525826	0.01780367189203057	-0.003339980554412832
-0.04940383750599759	0.001940581365071948	0.01644721122453387	-0.004463824999044929
-0.04423378218394445	-0.01094175315990653	0.008369213957881712	-0.00625236594979867
-0.005196197559698635	0.01655758087777319	0.01640385989075287	0.009168932204443973
0.02396223148865444	0.04210336041886898	0.01875968136689041	0.007708746290991282
0.03156542923500164	0.0008706420995487172	0.01751985853164741	0.006300775522381494
0.04597495022706843	0.01023679809863456	0.02030931680355769	0.005003334622303468
0.03790928477913216	0.02016931327462624	-0.007991134866733919	0.04035290741599572
0.01648293136020521	0.02970600546961821	-0.02040893264699922	0.04441944296172766
-0.00212124215557916	0.005525079337364069	-0.04354749070074455	0.03152896140859492
-0.0284621107153966	-0.0213219979231856	-0.06204759676584538	0.0145887599408328
-0.05657920977468148	-0.008966470186165651	-0.06388519206900037	-0.01061888605253008
-0.06300096844702648	0.01762872001239539	-0.0438983955791212	-0.03447873012249561
-0.02861703678780148	-0.02126702910887446	-0.01940793898452193	-0.02669520502495097
0.03003274674738408	-0.03734712253227312	-0.0403091078647693	-0.02584095542174525
0.08892652591769011	-0.0208502465771355	-0.04424943434038265	-0.01183057278414448
0.06018173915635483	-0.02201505243907196	0.01980124673686405	0.01422668096760329
0.06196013288014612	-0.02325630674394451	0.03890833234933713	0.008950779697715709
0.04647906631335661	-0.07110634194693322	0.0453446257849849	0.01807812159398804
0.01648809945751592	-0.104359603061276	0.0367744678966331	-0.01401132732510766
0.02750978551715278	0.007958261429759866	0.02760377366732513	-0.02473506180090783
0.02220177004646919	0.0233592897852119	0.02318255916104416	-0.009263948388629957
0.02956919287384639	-0.003865509953116345	0.001403431004019591	0.008000208581576461
0.02393979738458074	0.003797688005973729	-0.01400926408597305	0.002463628126687215
0.03678984662468727	0.05867093658377472	-0.003856761669935095	0.008860038011719012
-0.04224356158760531	0.10077726925126	-0.006729752782030416	0.01513560916697963
-0.1227013761190862	0.1131494400866043	-0.01326628438720736	-1.855123234218233e-05
-0.04398914178932371	0.08098387646848706	0.003085475795828111	-0.0006869975700007027
-0.001569640301534316	-0.009007514660780116	-0.004589934674509882	-0.01364737542702156
-0.1008102821298761	-0.02680076743251625	0.0001140747860743536	0.01734435113643422
-0.03117702156556149	-0.03449052385467259	0.006208755499966187	0.04407859815567899
0.009894471610892835	-0.0726382291419487	0.04974986264740885	0.05552874305256982
-0.008325168513925906	-0.0447678890509256	0.04910078076714094	0.04027773424751958
-0.01319546937853827	-0.02345823849945494	0.02939572797167283	0.008610964166905861
-0.01575727972698228	0.03459130095585047	-0.003164417487811415	-0.03841847705774396
-0.03630300439460304	0.03487297069550644	0.006218317406260099	-0.03422203331183017
-0.04247728368918151	-0.00457744498386533	0.007550290627832867	-0.01991849294941078
-0.03847445253018535	0.007407719550352495	0.006053088308676111	-0.006808564541480518
-0.03954664379009782	0.04060795493907149	-0.0176142736925195	-0.01235924571274628
-0.007627666362152319	0.07107993687911603	-0.03186636771698712	0.00275785089839352
0.02990299277127489	0.1151763870580526	-0.01485409382265463	0.001510660398091769
0.03235040744799596	0.1039405036990407	0.01352524942416624	-0.02637452136874352
0.02844485667900229	0.1092400479014685	0.03250767434517001	-0.02550505391670372
0.005271660357764668	0.09331903023061507	0.02820222272827883	-0.01766072876413046
0.006636298346577901	0.05165370582564512	-0.007523653048403618	-0.007101634629249309
0.02127409299829493	0.02671126859489159	-0.001056060808539893	-0.001200847449496423
0.01844265905342042	-0.06921265083000074	0.02608480339207696	0.005352684316670832
0.03836701949235025	-0.1004400700995702	0.01205670069885783	0.001660173857248479
0.01057872389541204	-0.09063122666012877	-0.006477934042227812	0.01502906147844951
0.006916131992598738	-0.07128635016214888	-0.009163441132627867	0.04027268246704258
0.01523309296502517	-0.06821991244470048	-0.02131852233881623	0.03964289340700129
0.008949940028889937	-0.05593423116300921	-0.01758635193424908	0.03553301945516042
-0.03364716303222298	-0.04990016889220671	-0.01591297218766528	-0.0005790977581621299
-0.05364952964562568	-0.03917210902451355	-0.02507874488641752	-0.04960008109789564
-0.02039712672353015	-0.03683689100149272	-0.03720271426964581	-0.06144624726777809
0.05580163496185527	-0.009413149290526961	-0.03200779314139346	-0.05617650615091488
0.01143245626519984	-0.02104035439839782	-0.02013336992982138	-0.02669277776460083
-0.01334188753483744	-0.01060619059729076	-0.01053355152559141	-0.01365465483940811
-0.0205249468877292	-0.005551031695412077	-0.005476482930912871	-0.005557963538846028
-0.02236078494814417	-0.01745237303458508	-0.0007895653641563133	0.002720679323915083
0.008852217294210988	-0.01751778742966433	-0.0005087601825639638	0.003781070930912987
0.000813493834041807	-0.02478455014815353	-0.007309220769229699	0.01001175742423158
-0.02887558485601057	-0.02851209748270445	-0.04113896331566584	0.002409481930929039
-0.01237187160270713	-0.04371385108711518	-0.04368466819791475	0.00584205525832494
-0.002815773241820122	-0.03643146222671589	-0.03715769201994615	0.01742663390129219
0.002245300322530312	-0.02546712232120019	-0.02996732192843788	0.09387566870147375
0.02803054570731216	-0.03369177944180458	-0.02932541733169103	0.09508752445788053
0.03861586485766538	-0.03836825156165441	0.01298528116990997	0.05739102068903526
0.09524747053887235	0.02884696589307918	0.08173064204792119	0.02064193437690532
0.08535440910218733	0.0926570702618791	0.04150457126279167	-0.0584632558816671
0.009281745241714585	0.1143493555698927	0.01694070029924416	-0.07902833550489052
-0.01744452292603934	0.1149239084382789	0.01191388537664926	-0.07882715638106384
0.003299048209259863	0.09093406987629274	0.0036193685993856	-0.03978283432175148
-0.004532780914688844	0.05730124133975145	-0.00968315174259409	-0.02095226494791199
0.005039318987545075	0.01142484823332845	-0.01411178523814269	-0.01539950142789932
-0.01167439760660643	-0.0614815709788569	-0.02762983154266506	0.0121626224129836
-0.02646169003314236	-0.08925779128221012	0.0217125582572801	0.02789002019481872
-0.02539822481555805	-0.07096402173307895	0.05634771988586494	0.05127352715557
-0.03375221446850695	-0.0253757586971714	0.04884034857427916	0.04886836913106538
-0.01538915950258963	0.02540225721487379	0.03058447413074196	-0.004356600068389145
-0.01507224524883764	0.02291181108367805	0.0282133015900202	-0.02124922044854832
-0.02345899540476071	0.02040958664325994	0.03017519185742979	-0.03441932265515132
-0.0225513607666118	0.06974001432036073	0.008797369430493848	-0.02551711377776756
-0.01152519894992696	0.05581615688276722	0.0266445208806262	-0.01563185282681548
0.01011043056305215	0.007383166606627212	0.01756060309406943	-0.01520289689302119
0.01610152952784511	-0.006685292219403719	0.0146897694218753	-0.01252414108229033
0.01026992721424531	-0.03971013725158116	-0.01069052881128314	0.002987018392172587
0.007106370312269412	-0.08165183530771325	-0.05247113625041647	0.02067857854245117
0.003037033767721189	-0.09080874485300487	-0.05491707933510998	0.01000501989726253
0.009959928376965885	-0.06819550315146439	-0.03724359556353075	-0.01100241259492848
-0.006504350160042466	-0.01108557487757052	-0.02192689410593879	-0.007099379511317853
-0.01826175344957528	0.005948152763948329	0.002045088238275781	-0.0112881681454819
-0.01915622199513565	-0.01502087361788574	0.01804538176515144	0.01351038016599131
0.006132909103223277	-0.03906394068348337	-0.01070219635179562	0.01511269662148599
0.03653347989913626	0.003116868384555663	-0.007859146744305497	0.009875666963040838
0.02950229514285042	0.003566479003480705	-0.002994603103453904	0.01275264708971596
0.03017101905020934	0.06265103463297808	0.004445439662260638	0.006795412427788934
0.0322027959578924	0.09370123593760371	0.002733744848549423	-0.02223288422200551
0.0202669186776583	0.0742272671975497	-0.005723929452934829	0.02774024609502602
0.01438758501563931	0.09520418878097663	-0.01610353203921201	0.02815271518916441
-0.03667893786614315	0.0579058737153484	-0.02533327658302552	0.01527507065974543
-0.1006243057690155	-0.02015390244190885	0.003529242385754663	-0.01156384934624531
-0.08577010946011666	-0.03086598548623921	0.03175229947482947	-0.03810789765015649
-0.03482575136683269	-0.05434983645765101	0.04624468140651539	-0.02729027869105237
-0.007306442421675601	-0.0354134560215939	0.03281121202936872	-0.02122273875196358
0.06420439987330556	0.008943944370562174	0.02342245823247487	-0.01687078225098606
0.08377952952802441	0.0188481829920509	0.0223025133498588	0.007224423817327349
0.06519596152039325	0.01590369346890434	0.01455963541999689	0.01247015401273152
0.03956822525166201	-0.03867876712299861	-0.007084450954380457	0.00246682701770594
0.01746171820010244	-0.06016304371747366	-0.02204239532655687	-0.005558069782789709
-0.00259715959537433	-0.05140128920420729	-0.03541831384030043	-0.005340067266007352
-0.00549110328172703	-0.03875434344596682	-0.01141960287039639	0.02930781635648888
0.006875187157190135	-0.06278508112548339	0.0002525893653439976	0.06067295337252879
-0.01192400637706768	-0.0120818864870398	-0.009501932374220064	0.03471008936654037
-0.002467468776113508	0.0689813753906536	-0.01674852027103719	0.0166766497470692
0.01186289215062528	0.1287693931675157	0.02568961588046113	-0.005284710773225055
0.01886219397758386	0.09403570992164612	0.02779369438232323	-0.0007767380158719775
-0.009543111099683602	0.04589911608633806	0.01094416842085691	0.01009630146663271
-0.0215435415667213	0.03104144098977471	-0.008342196253287516	-0.001412692945588977
-0.02982602562860752	0.03122123990136108	-0.02580933149414297	-0.01995770283751035
-0.03482443526602825	0.03837463402062812	-0.02510878369241679	-0.01458821276383371
-0.002758242294986226	0.03762715799750042	-0.01804911968125733	0.00113762112875312
0.008398095858599427	0.01832345590652854	-0.01838284894756087	0.009919604267622945
-0.0292229967635543	-0.03249423939741228	-0.06121250844400392	0.0006622068935632881
-0.03349622971928172	-0.1064196879829396	-0.07602966142232	-0.00526967007967041
-0.03896425543841688	-0.1601748490263575	-0.05519437058635965	-0.001187400125518596
-0.05290038766159158	-0.1636626014791143	-0.03798226894700726	-0.0003180653453444099
-0.04786020466870033	-0.1332315853649155	0.003614878395061327	0.01813791215700106
0.02219755215862768	-0.08224459824807913	0.02852187331656509	0.003819178030256934
0.03196160020520381	-0.03672210719825482	0.1439005957778125	-0.008953564069863045
0.01444046286439436	0.0009855240006340354	0.1572487737813646	-0.006233238073533756
-0.0008208155332174436	0.01437363435460831	0.08914639136799676	0.004052866875824055
0.01254171930780068	0.05377748001222538	0.03791181262600798	0.01081193234744041
0.03238990440475269	0.08049188481782614	-0.02055540188407855	-0.006214114736616649
0.03290604504441887	0.0682507238313462	-0.04317624981599769	-0.02286288902351367
0.008759552720092085	0.09751278264638628	-0.01898730134066315	-0.0141182486426688
0.01483553718913203	0.1311323997234258	-0.01939948537461872	-0.003443974802738948
0.04188108092611756	0.0899452787281638	-0.0160857764229215	-0.006211095461656311
0.05268682504135726	0.05984190347500699	0.006845115189894281	-0.01416524970042539
0.03212814576719984	0.04018192943895657	-0.003178962313791028	-0.01226484839781826
-0.01341539444472776	-0.02607427208139175	-0.0135148377754606	-0.01032210406159609
0.009508902768848549	-0.02209147343285952	-0.008484135135639156	0.003612600098009586
0.005621301451706646	0.01312101179939121	-0.01788312171414936	0.03517659073144288
0.03234610648605561	0.046068121007124	-0.01353239044194663	0.07801497571083017
-0.09984183059762014	-0.01314201228420717	-0.02602193695559731	0.07682284036599786
-0.08671139182937096	-0.07093520707098219	-0.01663879739131569	0.07145560776775586
-0.02349539317344649	-0.04958464189458064	-0.009957463453882072	0.01700955885642716
-0.004782187393764533	-0.009202104475206358	-0.03652827384555681	-0.05617664576635795
0.01151725796356028	-0.02205944316546428	-0.03432378405920692	-0.08084469248172782
0.003952918433645289	-0.02757152436303188	-0.03488215066025534	-0.1189541134290257
-0.0006981137330688884	-0.01285780232546913	-0.04026647807260652	-0.08611973816223101
-0.03412880994832058	0.04345490592672242	-0.02982528255210998	-0.0268593274174487
-0.009612445356440515	0.05903162212851219	0.000432784688958527	-0.001537544212316333
-0.009198517908522408	0.0493049762308629	0.02183933229686747	0.0007014624504106582
-0.05562026552437555	0.01547599565242268	0.009704820818196574	-0.004216891846343956
-0.06369463987509258	0.01394936929585028	-0.02450684096385513	-0.009859488291453328
-0.03381287287805507	-0.03933544855964169	-0.004810639791389281	0.002173318351951235
0.008580229847432379	-0.04655015983648884	0.07463209028398207	0.006728344519425808
0.0218796786061831	-0.06888446503271688	0.08197651997262581	0.008096044067588841
0.03145950452910945	-0.06000849267922861	0.04890436278981908	-0.002032486926570513
0.03389390902978786	-0.01393758685708338	0.02675256870802963	-0.003638513078053743
0.00240691289081316	0.01051876200269332	0.01622007959459457	0.001936812757392849
-0.006478567238729467	-0.01851765137455366	0.009235715757178378	0.01118424190885214
-0.01139780358946266	-0.04615201518179888	-0.006226486065719871	0.01494024282627921
-0.01010267978874324	-0.02414713881317898	-0.01603440419936405	0.01202866603448239
-0.01901141465096237	0.03774048411388137	-0.01830438896208344	0.001573886615303186
-0.0001692639814253038	0.05313295022000155	-0.006841000942572499	0.004318242075860585
0.03606801173309561	0.02978575137726833	0.005003064097952344	0.01750195666437402
0.02799576249029685	0.02365035647758856	-0.003338622595068272	0.06125840551664312
0.03207841468761928	0.03205037504371899	-0.009639027144850987	0.05741100564221075
0.05128019780345006	0.01381038397447883	-0.01855996961361111	0.03687181737970065
0.03798178075549261	-0.0442404900361253	-0.002724418197688945	0.02023233557776991
0.04377409194636871	-0.0822430587807453	0.009518622918134241	-0.03094502320854866
0.0496534991047877	-0.08737740343122384	-0.01442051894330953	-0.05592334589489171
0.05689070180912306	-0.09198754013610505	-0.02898855142096141	-0.05360080963328639
0.04576181957593685	-0.1038095236010502	-0.03600727560774168	-0.0331931746044911
0.03556566111475718	-0.08358541649442333	0.008010540437162187	-0.004777868623063055
0.01803044986616572	-0.02753590322940697	0.03316443126789212	0.0194754213030773
-0.008215986459604389	0.01675157845954624	0.04080689158306667	0.0110897902213048
-0.04304270207191409	0.04772433645517603	0.08730569944255952	0.01247053533164868
-0.0269912224027313	0.0213970000708804	0.06369605897964074	-0.002247923166625074
-0.05842347874667457	0.009745426346738455	-0.007805089430656493	-0.01419950200247084
-0.1089462388961616	0.02112373658831892	-0.04967429655756372	-0.01479779123312803
-0.04259601593647337	0.03669686154005279	-0.06857642416636205	-0.0007087505959909003
0.03144082400575027	0.1261267534448111	-0.0506475537593633	0.007038865356031956
0.03055029350650774	0.0783540240265322	-0.03524512537863934	0.008649388259104983
0.003343791906633085	0.03811252562787972	0.0165157738579677	-0.008389462569438576
-0.01762798596748777	0.02096278385155604	0.07530285937328278	-0.004383587215317883
