-0.01304836383074146	0.01948270886278202	0.02785092519828104	0.02593390863094241
-0.00666839059256139	-0.02459526708250684	0.02898605740863563	0.09401955703967498
0.003884768734664857	-0.004744048540172221	0.01016549186560601	-0.008180062852161489
-0.00305339134175516	0.003159835861614401	-0.03095519235434161	-0.05785697778510412
0.003470577126246648	-0.02791693429726015	-0.03133549076648012	-0.02598690905398068
0.0001845573955464746	-0.04846011918519701	-0.001443019542147957	0.1111682325447929
-0.005576615593214901	-0.05764363770551319	0.0162423625879354	0.1615479980575448
0.007557493371235104	-0.05235476366175573	0.1209418434771128	0.1027597760827538
0.01371975983109402	-0.01620349861072123	0.07175139674331686	0.02605435673445241
0.001357759148291243	0.0005170402168956372	0.04778083751786939	-0.09707979800399243
-0.003362687179125569	-0.001853236732989314	0.002987077130825507	-0.1772982305164099
-0.002721337886755801	-0.002324817133162609	-0.03003824286084103	-0.1381691225057665
0.007397456341968031	0.01472157939690564	-0.03629790115644935	-0.04718918054039168
0.00859252945633098	0.0269299461947352	-0.01146842058402634	-0.01576489966481977
-0.005367981320556988	0.0227188877139043	0.06092050870393284	-0.0192470032742169
-0.01468008229254884	-0.0384113713777218	0.08006068472997244	-0.08578060083003904
-0.005173374672661488	-0.1150571460294164	0.03316513549414687	-0.07485613011691961
-0.008221476010079659	-0.1252046243400048	0.01093463977102931	-0.07026021662746573
-0.008004449521888005	-0.1134747287501641	-0.000212307140941082	-0.06058748559888867
-0.01090219014775415	-0.07032328297644329	-0.002925523723354982	-0.04356655473364306
-0.005711731814240076	0.001874433910207326	-0.01697592379317998	-0.03571306094750553
-0.006464693995175913	0.08539894519737004	-0.004322666988807337	-0.002814979935715664
-0.002599530145867975	0.1154923600730742	-0.03045865674121073	0.04406522002528054
-0.002584658679583766	0.1297643249172609	-0.04827165001310717	0.03278788469428531
-0.004047000495132777	0.11616094610042	-0.004570371301989293	0.07842724446553734
-0.0009094965618520682	0.1036849599509119	-0.05138716153715192	0.05641454968699162
-0.01525938151709269	0.04737564720049199	-0.04112893991092084	0.03777065720445805
-0.01721320724807216	-0.004644512943530067	0.05208462306964364	0.04086818198872367
-0.01884871997349323	-0.0101313215179335	0.03871645037298597	0.03269711912441525
-0.004070844414358315	-0.01798784198080075	0.02703677460315677	0.04080690149049621
-0.002820455625559542	-0.006010659226714512	-0.009461255384695069	0.02261986339471626
0.002648313151575666	-0.01605002720148186	-0.02315775946280476	0.0009650146817807765
0.009922889051696474	0.002454205501477401	-0.01167054522049604	0.01302206905354375
0.007227285625233592	-0.006433760943024636	0.01957332090146273	0.04139396292868099
0.01132897562748293	-0.01785760927521203	0.0007789778750947501	0.03146081527181764
0.0176389220112497	0.01142611264570037	0.01163040648222667	0.01298681898009089
0.02860515974353007	0.04754211480938277	-0.007782507032122372	0.05758675010240793
0.01764257502743819	0.0240208973006554	-0.04527979548726481	0.1330919893828032
0.01172300385205611	0.01492532142647789	-0.02663705094374166	0.07434727470453892
0.007536210916115246	-0.009944910523414754	-0.01432232838793212	-0.02418173140989929
-0.02563067485852676	-0.1205979264658545	-0.02618120435706633	-0.003758571528709394
-0.02981824475207868	-0.2053740272433928	0.0008209645635396611	0.003984009580110246
-0.03345566645233442	-0.1467116301074103	0.06254970794321081	-0.05005062423263579
-0.0448210000920382	-0.09042133285526475	0.05050984384918938	-0.0501806173785606
-0.02914897989047777	-0.03013881114787523	-0.01775993374120616	-0.04065397463296454
-0.03153183951820004	0.02996487217815905	-0.1045456437794443	-0.04359621677784883
-0.04177141437146603	0.0358473434694625	-0.125031122580772	-0.06109777648005704
-0.02079141750555449	0.05857112141499806	-0.09550200983992677	-0.06227821844379661
-0.0164805832208524	0.1025497521499769	0.03115691132100893	-0.02950407229047164
0.003029250302877606	0.1634629512730763	0.05523460843444924	0.03110323442314851
0.01035059059460865	0.1039873120886121	0.05972087323196133	0.02344263521612958
-0.0002830757063253175	0.04554541449705603	-0.01627567878367672	0.0138076884261575
0.01260309017104326	0.01466561413439368	0.04236775067342567	0.08698365535295975
0.03360340532180852	0.007745194764396793	0.02970603818844508	0.09026044320719863
0.03628251575397078	0.006017089697255791	-0.02780961581435729	0.1085457766215124
0.03068606096255504	-0.01244229883991789	-0.01938684684878559	0.08451994643672243
0.03611053810893164	-0.06339634476716453	-0.02620969933893224	0.007482938070254528
0.02184353321939194	-0.06827362532519274	-0.02358217458287475	-0.08554274672303513
0.002624736599807203	-0.01545093661868843	-0.02494731542790203	-0.07260334162427105
-0.0113215162195622	0.005081161384645838	-0.0176175045004052	-0.07623765005524497
-0.01195490320173739	0.01438809897665904	0.01103578176239954	-0.07100302158090703
-0.03656452671182913	0.03809978306002244	0.01781805920335505	-0.07467304302674821
-0.04751168498153271	-0.002060966609341643	0.1042305584702034	-0.09890714185300833
-0.01879371648875745	-0.03241243792698618	0.07846396341123822	-0.1259852395206357
-0.02831794677997086	-0.008040968554583239	0.01178716052868676	-0.08272172199825345
-0.03826530290580349	0.02961217404054119	0.04287563821714204	-0.03643433178355934
-0.01819279453128853	0.05480629179955035	0.03519535480541593	0.002075225767527303
0.003225771659772946	0.0206918346515601	-0.001590481991934041	0.003426683293582567
0.01204327499622434	-0.01321667936128697	-0.01699804972643956	0.002112156257154667
0.02095416746604293	-0.01376380979891517	-0.0622160218686203	-0.007457211116988388
0.03101423258406713	0.03500089855899395	-0.03735562812210701	0.0005089557510907963
0.007874985553623589	0.09674028658464731	0.001223829136441096	-0.003583364703089848
0.008807036604460585	0.08995438969597576	-0.005075059817858538	-0.000666243017388133
0.04950979132283086	0.03642676852916715	-0.02922314850852427	0.0009165061939436991
0.06027656711615106	0.01119393582729746	-0.01237723623071241	0.02661411344074243
0.056479045853898	-0.009650656900780876	-0.00552228150764972	0.07959902097911681
0.05304882396301581	-0.03117502671595149	0.03429509682312241	0.08163129106729915
0.03651835488293295	-0.08945578964821882	0.04271799519503718	0.0645523624988658
0.005676199962525172	-0.07574699032096549	0.01223869920186418	0.03898179136914695
-0.02360490432774323	-0.076093080237738	-0.008855391942855449	-0.02883853242241709
-0.04054185686184471	-0.0662171106052432	-0.03364160168155139	-0.05030534344121454
-0.04249528680825918	-0.03783212401589565	-0.05199411237393075	-0.06289457844291341
-0.04987435264050954	-0.03549956819338776	-0.06544360603222868	-0.03507334861271951
-0.05442985549121489	-0.1188816941308837	0.02172507685967616	0.0409003816828782
-0.02883369451435964	-0.05187695721415363	0.05033176855061784	0.01756359396560699
-0.03380423729996003	0.03715725012397795	-0.02474615156768239	-0.06317461723689483
-0.008798778310404223	0.05103478026585188	-0.06612545995694072	-0.03497937805480321
0.01325259545829752	0.0471822551200154	-0.009580133309159886	0.06295672599235988
0.01631763901532158	-0.007304848353083719	-0.01978282256603197	0.0447445558931794
0.02175121760083898	-0.0979112487586765	0.006351794548617101	0.01752512624338144
0.02025469515594057	-0.09551637525423601	-0.01831656267980074	0.03514270077493757
0.02260870880691935	-0.09210837512301144	0.06413044197720202	0.03417381452698467
0.02749591498953625	-0.009751857257544582	0.07304206217118453	0.04101042241627646
0.02097668401409996	0.0519584535617784	0.0818634867884083	0.03018077880090081
0.01526165213039102	0.09959298497172765	0.126021789099511	0.01749081708465513
0.02319090575289764	0.09718338683348053	0.03003008999510672	0.008273121489572589
0.021774471268877	0.1298488934304665	0.03026759883393679	0.00181048182147953
0.01373119934874224	0.1078345958227661	-0.01754363402962729	-0.02009188527607745
0.02175501505633827	0.02275361269428234	-0.04252469471812247	-0.01970381235101116
0.01900733225896057	-0.05131283287919261	0.01438076381230995	-0.007273428065206617
0.01817562736483056	-0.07404685427281772	0.02195938268642032	-0.006009776100135279
0.01858331265985032	-0.02971284171563724	-0.01922562302235874	-0.01118761559461179
0.01327461595249557	0.03135011579308142	-0.07363314821715777	0.02940809015799267
0.008661345395094762	0.04219471460137328	-0.05244115209674554	0.09448685592065566
0.006670870936482254	0.108850732074084	-0.02761261804330586	0.02095073636360135
0.01550418719485989	0.1935817577456737	0.04521936576941464	0.005023311508079503
0.008989992663841649	0.1028396150437353	-0.02948946421193579	0.01859421203909797
0.01005537828439335	0.03800163760801312	-0.005685498433756147	0.006905726111598016
0.005750731940477547	0.0204649890171437	0.06347035731849557	-0.001470172994999376
0.006397581379166713	0.01815220362620869	0.027368308796564	-0.001335345297697298
0.001956171517519625	-0.006426530380455467	0.01951985039301574	0.007195841830593607
0.006702338112861108	-0.03343343459886802	0.02072215105210189	0.01126438162419814
0.003414122724960524	-0.03694865855119501	0.006808590519688873	0.01118498544981336
-0.0009089740023088157	-0.06984999295788974	0.03102598712501014	0.006925016665097029
-0.007856097616471869	-0.06689019162562297	0.02180202647487123	-0.001447474485752946
-0.00533088157072608	-0.08997001645614995	-0.0163940938144711	-0.01275662456688082
-0.0113802414222909	-0.1401546806688022	-0.07908169730086786	-0.01555811653713616
-0.009787382520595227	-0.1980184371574673	-0.08463100909941235	-0.0144517667946523
-0.01309693313182101	-0.1235733304608477	-0.06700181224157652	-0.00934416301353288
-0.0120279286862898	-0.07250745889780114	-0.04132969791625251	-0.001753892893529348
-0.01348191486225827	0.04304904856673945	-0.02056278144877433	-0.002480294162309907
-0.006961375349752453	0.1151974875857198	-0.007164343673437705	-0.005777702599617399
-0.01558268509864707	0.09039855803822432	-0.006107871138366151	-0.006807117935355447
-0.01315211760176866	0.02487331404795794	0.01728981217918333	-0.0173526838127071
-0.01057552858386224	0.007792718472052988	0.04490301233801948	-0.04651107350116929
-0.01451888962844019	-0.03070525344450288	0.03389430050054364	-0.04414458901211615
-0.009359967538648793	-0.004079277850066555	-0.03330056526765515	-0.02619667100824623
-0.02215235412249046	0.004865968191458478	-0.05248633520281731	-0.01447785072148554
-0.02314751166599625	0.01708529623314882	-0.04637379688097917	-0.02031975835206448
-0.02875860514755962	0.04698307608401613	0.0100658129687141	-0.02806827882605211
-0.02493090139794417	0.07163759791977993	-0.02353355297854132	-0.02198521367129128
-0.02515112999874308	0.07942608133957232	-0.03424603912208598	-0.03180299985988361
-0.02583584562874947	-0.03412693429398982	0.03012551935436168	-0.02080095166512272
-0.02114689649989086	-0.1016368185103786	0.0712883318247058	-0.006767942137624721
-0.01445896100412179	-0.08976389782993655	0.03936151305971708	0.005445892345276137
-0.009915560972791754	-0.09250378372325685	0.01755473688827094	0.002556639352779997
-0.00276592285700569	-0.03116354013706244	-0.03770650868159464	0.002703366680742551
-0.002626090762979363	0.06127961686957377	-0.004082422936309468	0.000885794998702612
-0.002655708630130533	0.0438965495543479	0.03283336422215258	-0.001227497528041827
-0.003968451302763819	0.08970438641125472	0.02456701339851252	-0.004462395923276575
-0.007243693382377168	0.13831957520507	-0.06393770694415501	-0.004039001457999464
-0.01155581209243043	0.04022360299634962	-0.1317770167666137	-0.0009314774838317365
-0.006495296496433376	-0.05359853245724289	-0.1312540674890588	0.01459943195267159
-0.01227746737942057	-0.05823629970872034	-0.1115767203464178	0.008079971022532417
-0.01078960110075258	-0.09135642081452236	-0.07582279754157338	0.0619391456130905
-0.0146255531174372	-0.1042853957502536	0.1366740230754909	0.1121408178405433
-0.01457165967202213	-0.05109512435710575	0.1656648915703176	0.1061644770301177
-0.01285350101951179	0.08710671874881364	0.1236891513940786	0.06307505443140676
-0.001737839952772756	0.09403860636505587	0.1085701183610169	0.03534819521803471
0.001999005398209035	0.09684072958550129	0.06191040568089162	-0.03354114615068792
0.008023140078954018	0.05555606547216665	0.01825059825794393	-0.1013164531667703
0.009463706753074522	-0.08380896414675927	0.03211969525377637	-0.1228865972267639
0.01868918938240705	-0.1215815570271392	0.02980326644119042	-0.1431564680197104
0.01739002355996556	-0.0606243755160398	0.05958846238739247	-0.09843064832551683
0.01398667334923639	-0.0005580513059332649	0.02752903806863445	-0.02864159301284095
0.01885262300950211	0.0667000511500217	-0.04199644563435951	-0.02196172911682911
0.03054862787876669	0.01719295798920362	-0.1103570218347221	0.04530057610725612
0.02706152316841314	-0.03258380640577956	-0.1255004053268709	0.1094760041907826
0.02547916422686099	-0.006172676433002604	-0.04830451280160086	0.06444951146717448
0.02850461943198595	0.0560689830556764	0.06591691873511947	-0.01087554370013125
0.02223234432842875	0.1345142941060413	0.03554530611231857	0.004363058355665116
0.01000352354019633	0.201219669894958	-0.02470244624149053	0.008474656740863408
0.00629230458077454	0.04335781892117806	-0.03350364961949401	0.006380586736662173
-0.01357552901777295	-0.055162530991991	0.08425684589049877	0.007137585803402501
-0.04595115633382781	-0.05751078742991231	0.2123354016241421	0.106062138910453
-0.0172894965459386	-0.0430079686024554	0.05963864848842338	0.06945110242020149
0.002836697293671468	-0.0235307383152514	0.003075467597282933	0.006843005204520478
-0.001755250386234509	0.02369071001505467	-0.04106594802859166	-0.04742255715531063
-0.02562408438664445	0.03644795758504433	-0.02955949579932629	-0.03393926162787654
-0.0303822892563551	0.007980913615892213	-0.01649881512696367	0.00333480755191291
-0.01015383547896658	-0.02181205188591614	-0.05783497336880167	0.01200379959998345
-0.004679542244907771	-0.02880200815121211	-0.07130777484252476	0.008826939224682598
-6.949790083385956e-05	-0.1499193727575919	-0.08968458242866531	0.005942071011081944
-0.001062594076567757	-0.1176820335921889	-0.04494133352612655	-0.0005711788641366096
0.02797020210415604	-0.01388267584101632	-0.005862560334457294	-0.02662623881826866
0.0244847396760634	0.004687352100821007	0.05651776905458558	-0.0192305488824047
0.006878631743598071	0.05001926973424219	0.06712469732531656	0.06633845318983524
-0.003807246442314672	0.039784932955038	-0.01255854674199845	0.07489747756507839
-0.0007676949613712406	0.02790209409938284	-0.03357540346574395	0.04744570019658893
0.01651880614734587	0.0971749267806013	-0.009861957807645323	0.01438022879014967
0.02557973063884478	0.1204364282761846	0.009329631526497009	-0.01871481109475495
0.02567288854758328	0.0608043101441938	0.0304801577419836	0.004980211661857632
0.00980968478808749	-0.01538020216064134	-0.01174085085944183	-0.0438809218957376
0.008399778979172736	-0.06658138970023707	-0.0426280039187549	-0.05201281344585636
-0.01342813017976636	-0.06169961732414245	-0.08931448803065342	-0.1018642794408469
-0.0191952378263133	-0.09633174948698761	-0.1184357214647235	-0.1024442072983416
-0.01738782268172359	-0.1134698843255514	-0.06122452481876216	-0.1206583758086314
-0.01334600912496551	-0.08765505656211542	-0.03253139907631323	-0.1002627135461275
0.001879678497576584	-0.117164999481399	0.003458331152432206	-0.04542148069133263
0.01243972612901324	-0.1024035322723934	0.07727106478887034	-0.01269449794121902
0.004069286945992311	0.0149290838056748	0.151679687505859	0.004894761936312482
0.01701619734117434	0.06310875386297617	0.01692281038047361	0.02383010825756969
0.03073140435865921	0.06078405459141785	-0.0862315519988236	0.0144412002627076
0.02805960353251468	0.09648646728508056	-0.05934209384545538	0.00691034297461334
0.01255262510889486	0.04891076608281408	0.0204458684882196	0.02509204012273217
0.004631417451040243	-0.04161943413441845	0.0236776584312938	0.01910872127802698
0.0009862389967142155	-0.06730579841807278	0.09436555694501358	-0.005137112513414144
0.004057565555335523	-0.07614820987711098	0.06252953969457037	0.003261581478036357
0.01392964111426878	-0.02992835553314725	0.01161168229329262	0.006704449875486266
0.02209532180854226	0.02501848475317385	-0.02984377368180439	0.03654377349214968
0.02896220264922203	0.05932881264081295	-0.05033863831195316	0.05128644820642284
0.02822863424043101	0.001672920704856314	-0.03048091803706077	0.04739180658505437
0.02492095906271139	-0.01128037289483796	0.01147465495911779	0.06061042367389707
0.04176254299887262	-0.02849053448865891	0.06484320790535752	0.07269956456077628
0.0528704342355381	-0.01134874939714853	0.06707432793726996	0.05942552362797184
0.03803589334688118	0.0349701376836407	0.07288178886676047	0.07097393343277987
0.01684779903547522	0.103541307329237	0.02557212714736447	0.002877820009424796
-0.005753098702874735	0.08200016073700779	-0.009920186510181572	-0.07804653347786523
-0.03087097051620026	0.09198247637627942	-0.01062584277394093	-0.08006795379671325
-0.03617014003291252	0.08701755758814875	-0.005076797809706581	-0.05570356573413005
-0.06378890785836291	0.03812390307872914	-0.04036843576853912	-0.05014680741026253
-0.1002189127314358	0.01230565894340655	0.03068533372804769	-0.04797628767835142
-0.08757731395599989	0.01930161614224709	0.01823878836481892	0.09604285088468728
-0.02715830875631225	0.006491959060005641	-0.01952678509942333	0.1664245848174436
-0.01444814779320653	-0.01139654549415258	-0.01497322413126429	0.06010263377664134
-0.002237889848308565	-0.06481100169257233	-0.0103568110216871	0.01226791775464795
0.007386404376203313	-0.06265326979447114	-0.005954177079164152	0.01870605615218221
-0.01116615241013038	-0.04410623519626222	-0.005753684250889091	0.0215645568888969
-0.02469771757224877	-0.0686395281825315	0.002248742898586582	0.007469058777867108
-0.01644966390643647	-0.04041632265160437	0.01477335478638547	0.00306939282125207
-0.007655666966007202	0.05721032118949552	-0.04305481013237406	0.01265996029738499
-0.0186919895700101	0.06854235583214906	-0.0491858379867829	0.008020637740071073
0.004113810009998789	0.07827698340535487	-0.04304146766900466	-0.007545502525172814
0.0122363498627518	0.08466662859380476	0.01073261680754645	-0.00394079113785325
0.0224237352207224	0.07357733436283752	0.05940731222762535	-0.00159788071461352
0.03899026791755274	0.03649367073451974	0.01421559274884929	-0.001182314104749158
0.03293514070210614	-0.004599620783656382	-0.02375262892757552	-0.003745345140930044
0.01286336922039784	-0.06113504256811909	0.02469277324426989	-0.02856294761441133
0.001813860640314364	-0.06013402757969957	-0.001760617658629715	-0.03516214985255427
0.002955887930804998	-0.08296795467751572	-0.01488459921511901	-0.006114997282291499
0.0005281510929710232	-0.09101352661477735	-0.03098854814163665	0.02451655135725726
-0.02514930104463723	-0.05858400219252406	-0.02924354306607281	0.04636350467298788
-0.07166759420495089	0.01151191692205744	-0.005747471185990826	0.05395739371892886
-0.06865363189063568	0.0747386618029259	0.01146439859668345	0.09303971317405328
-0.03454586296605825	0.1124490064512442	-0.03026561380409359	-0.02656661736031556
-0.008394554220917111	0.02803742202903821	-0.07826099198353001	-0.1239863396368878
0.003575767415013756	-0.01367832201437446	-0.01115880023728843	-0.1079871557134771
0.0002663311750703372	0.003087120438604447	-0.03648873431383756	-0.04693932611275301
0.01535485364012617	0.0135606854468137	-0.003842944125506244	-0.02068813512674679
0.01912818037097243	-0.02358513998036036	0.08131743857130991	-0.01135674848973437
0.0186042952162438	-0.04723924600724358	-0.01675510035584541	-0.003075580635837354
0.01269448215030411	-0.09258047527448504	-0.08410386861620169	-0.01841751882562704
0.03824207546224114	-0.03962418441833717	-0.0731255568988336	-0.03240762067324896
0.05266798810063211	0.008951952357421418	-0.09055219189290858	-0.03725471686204882
0.0353314379720306	0.009254461491919762	-0.06315585617955428	-0.05937695125142109
0.02098376373059429	0.02098751022215856	0.02934581633061844	-0.04523237393428157
0.01836048695880028	0.01030811917963477	0.07472561621795112	-0.01721475467021689
0.009146908317641415	0.04445094612024594	0.1902719833673969	0.03519691021807562
-0.01108005450341726	0.02464745472563409	0.147583579486728	0.04257961669772161
-0.01586193480303253	0.0003206137919592785	-0.02649572776755098	0.03354733109468435
-0.01247616865555317	-0.01488660175790773	-0.007546982280505748	0.05371153588444388
-0.01731033303906014	-0.03288208472247396	0.01673672277188596	0.03654597631303284
-0.02331010116423501	-0.06102164551572221	0.03130733010210617	-0.003281302734997258
-0.01209614092552822	-0.03831724593520384	0.04098380801471325	-0.009794207017933484
0.01086770357238083	-0.005571094562264713	0.04251879865479991	-0.01311499650024128
0.00476420510755612	-0.02575483579427318	0.01750944425101284	-0.04337328184373757
0.004711318655395869	-0.03373253283835301	-0.007536253185016426	-0.04119161750062943
0.01198649878157225	-0.02970047525776989	-0.04195633722773716	-0.0370398691991589
0.006397150526938418	-0.009071965146082966	-0.06023418053106028	-0.01250268926992206
0.001566273335736237	0.01523213649892304	-0.02952835177702784	-0.006537611639229098
-0.00102316746943272	0.006825032780512963	-0.03254339280128458	-0.02156456808768945
-0.002911101081597792	-0.01965954248850785	0.04237324775868027	-0.03525725422141792
0.008794074003128436	-0.05724282845819989	0.1339611827154412	-0.01543028462370654
0.01324666001248467	-0.01670112090529787	0.03938007917018895	-0.02597151792148102
0.01280904269418546	0.01992582690306202	-0.01011905192765037	-0.02539560010439204
0.002675321602331925	0.06768679451039815	-0.1061670783216751	-0.003953106817609455
-0.01696965368410149	0.06964031812466656	-0.08067436715376269	0.004796991219874624
-0.01085007584457361	0.04863716110063813	-0.03816057094138468	-0.004412341258221019
-0.01334761579976329	0.01120529328967805	0.05792603585581631	0.01545969306453182
-0.006892505162754671	-0.04771280499485702	0.1263134942504674	0.02017318208001707
0.002057497241028173	-0.03431337725557868	0.06428465183101646	0.03724226848331923
-0.01221332848981538	-0.01614344190365204	0.04696336191494752	0.0670177875971317
-0.01253119101781462	0.0013157406184016	-0.007868883571286119	0.06263461569943077
0.007849327825548187	0.05686151304396808	-0.06851286579093435	0.05163271750465519
0.01406578056993573	0.1299190507798637	-0.02491419038388457	0.05141268372979652
0.01212255068894074	0.06275343681516907	-0.002365003872967576	0.03421615101051169
0.02561545286666109	0.0168098917131203	-0.009727812366900934	-0.03632997434430508
0.02164218341959161	-0.02404056046972389	0.0008336315920655136	-0.04945453086730508
0.01978934240824803	-0.0303796664475141	0.03806871003252689	-0.03406355412357161
0.004185374378693099	-0.01128345001340943	0.05183473184229141	-0.02920047155935208
-0.01895305689251125	-0.06280729615606803	-0.00616529456439791	-0.03050916935375906
-0.009142034857598038	-0.08433536006777834	-0.01601250375505553	-0.009659122831857167
0.02245524600263564	-0.08099277150839208	-0.04366558246508013	0.09415580959300351
0.009636920017816955	-0.03670138452290023	-0.0243702793616859	0.0813086209127962
-0.01740739100382952	-0.02103106943512994	-0.03366817065375538	0.03688959553636303
-0.04123356147045356	-0.0312513859249722	-0.03251362684561657	0.04613917877706214
-0.03012616157857529	-0.07967701671539228	-0.01923185627602658	0.02239251506817343
0.001384537056421578	-0.0495182660450224	-0.003620117966375208	-0.04794578191999035
0.0007099206099218636	0.01552139759648903	-0.05051681753434734	-0.07190213536703528
-0.0399524814231161	0.159788835279479	-0.02720749802640859	-0.0614752445958987
-0.06785867809117707	0.1981812531414653	-0.01917009823486736	-0.00299974179692308
-0.02625278372773395	0.0871460259109666	-0.02266618436763139	0.008942495131384726
-0.01278010480870142	0.03485748050895577	-0.04696624442318363	-0.0114309739674754
-0.009594010165404459	0.01796108029037274	-0.03909398809219053	0.007827145487626119
-0.01446205660352297	-0.03033904571480544	-0.03920230116248016	0.0613062979777011
-0.001529646820714564	-0.0450670729632154	-0.04999871947098777	0.05853485404451137
0.01442880436232779	-0.03837709188325133	0.005790040668119127	0.04714530517175515
-0.01275119619917362	0.02779887341994523	0.07653168846200768	0.02648074556265053
0.002619693647622115	0.09858938275636382	-0.0228033425544606	0.009087709456706118
0.003082217842447125	0.06463067660362304	-0.05113428455940992	0.005162423118407116
0.01267766709893693	0.01489660877973432	-0.0522911772112901	0.02628640574964203
0.02476359263179945	-0.0317188923569288	-0.05747208653094825	0.07566045810744641
0.005863229586044036	-0.04181679871666921	-0.008689685197827356	0.0543915537798346
-0.008667328310242872	-0.01510957362294794	0.09611507573581432	0.05166320906031
-0.001607586241048575	-0.02909980683473841	0.175084643901775	0.02691907834821951
0.009144757015082862	-0.01442712827603716	0.04366816644225748	-0.06346534634373725
0.02714163880338086	-0.01082074282076938	0.02824659292170145	-0.1515725637427381
0.0009171386255678457	-0.1062085078970939	-0.008266786239019473	-0.1142828612802849
0.01140334561066626	-0.0891663348177384	0.04956746453056255	-0.07120409998419287
0.01953615001990298	-0.03040418541629165	0.1249805147408444	-0.04634223910012639
0.01189040730794107	0.04221768577075877	0.02940360541028771	-0.03552250175515661
0.02007343204525657	0.1093952813817474	-0.07907875731752008	-0.02632542708539259
0.01958861471153371	0.07737414039586407	-0.1305099064658915	-0.02841665555618087
0.01733286341897132	0.05799882269931322	-0.1058062154324176	-0.05706226273996223
0.02608894862941784	0.02767164801483451	-0.07818981037171729	-0.04414424060995695
0.06160208982903197	-0.03960851213374937	-0.01567482925123209	-0.02440352892211737
0.05936993381131395	-0.006522675995235898	0.07511012621904968	0.01008938285624068
0.05583844122687443	0.02961918872345223	0.2084924443979656	0.06923913456023306
0.03860582181489054	-0.01493457661265159	0.2006013692733845	0.05380384738732084
0.003572348870832319	-0.07501520336758227	-0.02038742448937364	0.04069134757225395
-0.004629357186210997	-0.09291200949126066	-0.08159353960975255	0.03032020051117826
-0.00419088288016512	-0.06150938743706338	-0.1107340816019943	-0.01803786505954734
0.004923263909564621	0.005619337421132574	-0.04661768915917214	-0.0226279152291498
-0.005236320231048191	0.06955008467710443	0.07600584835710736	0.02864723767059735
-0.02995141046268648	0.03106578276329099	0.07081738531211111	0.05789316076287059
-0.05617923556309522	0.009500474919142111	0.06797782342580022	0.06917873050767305
-0.0373601483629247	0.02030602381837047	0.01832164989294536	0.09059710000044685
-0.06682509111986278	-0.01104293230040806	-0.008334227685015511	0.1017931469925227
-0.05137176460722726	-0.09024108535892747	-0.01254039142819386	0.1777370380964155
-0.02943189754434153	-0.08482978006669308	0.06780653356770974	0.07724684047503634
-0.0112972125500625	-0.04402897640828338	0.03520123988464824	-0.02862292216723717
0.005235570500852926	0.01589067792084795	-0.0196418812552093	-0.1331076382258002
-0.008669592326161364	0.04729857540576696	-0.0213045982852613	-0.2137050281135899
-0.0003709867089258719	0.03453439770070963	-0.04047915590308669	-0.2130718603580863
-0.02242938117999833	-0.0002419799848798207	-0.08537065880412445	-0.1347840014718227
-0.03322124764916593	-0.02582524816206115	-0.1177724016478584	-0.02032708115180286
-0.006802240421782069	-0.01651267608995628	-0.1068958787249461	0.04475015153329115
0.0001530176968180905	0.03445601170916445	-0.07477403208414164	0.01880949463411156
0.001889327550616494	0.03393836715020795	-0.04423226137778218	-0.04315804220123812
0.00857256249911981	0.02390114413429712	-0.02463944695689464	-0.07955039676519825
0.01869577038173126	0.005721673726647498	0.06257631061091515	-0.1111720423861762
0.02277723181884826	-0.02789404151394336	0.1409436223318498	-0.0665214496625363
0.0282337444467118	-0.03863752932433021	0.07776079635885216	-0.02940938750906939
0.038293880247669	-0.01759787802340867	0.02447562417802355	0.02885132615300036
0.03499730039794014	-0.01374580082145761	-0.01693973556746895	0.06751179173098713
0.03926998221334256	0.01843452187934483	-0.005015770392751478	0.1126388076139923
0.03496268545853879	0.05889675235243059	-0.01014644258603896	0.1084530481450086
0.02905019719300463	0.0733918495637574	-0.04385744104736346	0.04972269673183489
0.02010331902748543	0.05887575115739847	-0.08288989315163342	0.04033696948413399
0.002527527411756255	0.03932696416410957	-0.09407295752242738	0.05263417748930445
-0.01495643120213221	0.003384517831894779	-0.02846472775244473	0.002498224329143658
-0.04978082028751097	-0.008965409021632216	0.06541644964275399	0.004221785284695926
-0.05986510630016588	-0.02537229724882288	0.07128873459922268	-0.01167859399183573
-0.04173831229815303	-0.03179179912018863	0.04704991120823633	-0.05889642714576594
-0.02449919693645724	-0.05933261182771427	0.0559750974237166	-0.05095801953659976
-0.01588019121620612	-0.102099700560748	-0.01013420799403771	-0.03793326799506259
-0.01080817182670674	-0.1588568982815509	-0.02310580793163804	0.03562519624472994
-0.003619206628751761	-0.1104592385473456	0.006966087886421612	0.03757224024623815
0.009188499508574007	-0.02274541531735864	0.08472915116092332	0.00650713673553481
0.02155928360179625	0.05393791184880029	0.03102162656974661	-0.005118526293403901
0.01574986511183866	0.103607024055027	-0.01805554232983101	0.016528157182837
0.0003913623867648784	0.181085148137744	-0.01025411627884807	0.007319370191988024
-0.0006737033682199985	0.07516162070274417	-0.01800676943465204	0.004014432056633482
0.007332742557886259	0.01554525181599528	-0.04779168601222579	0.01960159157787309
0.01416893720073063	0.02543146650551695	-0.08617502109622108	0.02734048025632521
0.007840968543994804	0.02099368741003647	-0.0565613600516619	0.01023827150187115
0.008736473925373181	-0.01801605564177629	0.01772149292577446	0.01697364435365598
0.006799815722756106	-0.03340725522594291	0.04066318691091327	0.03561292423617071
-0.01257075893179128	-0.02007938268924244	0.03350244034256833	0.03763925141645797
-0.03321069226777641	-0.02269913851315712	-0.0137703387044671	0.03043157383344845
-0.01599343969570936	-0.01930485285607127	-0.1156681535314135	0.03530568792211307
0.004239457081310913	0.001891861126538276	-0.01545646156734201	0.03281628133374713
0.01945786204933277	0.009759423341412932	0.04609949223368828	0.02614930288658594
0.008538150123483135	0.0136749977361672	-0.1555660479350051	0.04053572110143811
-0.007704484195117465	-0.01360626094754837	-0.1237504854201488	0.02814494610871837
-0.014445834156856	-0.133144465973832	-0.06465181918470075	0.005655661871935914
-0.02305416933448174	-0.1591238572387658	0.1093793573367006	-0.003149247022482012
-0.01500738631311348	-0.1474052022386578	0.245958973669885	-0.006082067297098779
-0.0126852613694084	-0.1129388895071059	0.1732355527774189	-0.01638270729159422
-0.01793176104882276	0.0472360299231538	0.07396839948548604	-0.01934428154110632
-0.02195381334626747	0.1035325813647773	0.01161579079600914	0.009829742585828418
-0.01875639440174146	0.07760947887635346	0.04254920897589405	0.03235435516895033
-0.01462939686231083	0.09773958184807179	0.01874328493700272	0.04533336933006551
0.005386924119077807	0.1590924357812515	-0.008498379770950519	0.03835471995129451
0.007228718491590292	0.1060400549838288	-0.01649738694821593	0.02024917635360371
0.01001092379105389	0.06324394575481149	-0.005766580079904365	-0.01998334547333637
0.02680870440699671	0.05934246627275213	0.01058323316071048	-0.06489815873708207
0.0312738647512411	0.04429600341591763	0.02255638613101907	-0.08956562465438161
0.03341222933724962	0.0518568894281302	-0.04037677500218677	-0.08219245716198828
0.03525141689172701	0.05769676522907093	-0.05218034654636583	-0.03926174901803443
0.03594099594439592	0.01546803332254991	-0.05097605064106715	-0.02745789663364923
0.04347564794793204	0.01040675290217711	0.01999601033343762	-0.00667362188075313
0.02444186536372856	-0.02706811920603218	0.0002689460512434387	-0.01467559771450108
0.00483454384407789	-0.04410856715546438	0.01693762733056495	-0.01797286323369688
-0.007031925628193135	-0.03831083925289866	0.01056178284826735	-0.0161447124323666
-0.01391194943248695	-0.03900663097447631	0.03781226874229854	-0.04107021341798944
-0.01644573861510983	-0.001968658888801629	0.02072742774603395	-0.05033850194156734
-0.02219022241110543	0.02099592464448568	-0.0234605300192966	-0.03042799807097738
-0.03478854994395272	-0.02412193726507547	-0.03142666533201346	-0.02047684545170239
-0.05150256338652242	-0.07026445379873915	-0.008559784537044373	-0.02695393885884515
-0.06352912270069123	-0.08734703823354548	-0.008350793040296187	-0.02454664535751928
-0.03758006749310568	-0.05282443611747734	-0.02680023106098673	0.03912890690189947
-0.00991108247175293	0.0205912042044498	-0.03314307061212067	0.1065402912616058
-0.0004899276613547611	0.04799872104740728	-0.04541423390237506	0.0188296023597072
-0.003009083158419792	0.03749117991195145	-0.05055578961650434	-0.001879173223928
0.01015097778715521	0.0578554148311874	-0.03102589180069082	0.03640340796642892
0.002205419983737312	0.03797584892372976	0.0005300360936810701	0.06884339264843131
-0.01846937718061955	-0.0430936603380872	-0.07246303916727979	0.08724250585094613
-0.01618588375792614	-0.04244475463228045	-0.01373701258556505	0.1005365560391726
0.00223811000986472	-0.04633011216624804	-0.005602668648995903	0.1175461852032228
0.01232803113329471	-0.04936684556706242	-0.03603653755480214	0.04819995133682863
0.02647862589162211	-0.04460227592724431	0.002392601016185355	-0.02413803341899472
0.0226615092107602	-0.02830059868767775	0.02465356279099475	-0.1009238419344391
0.01027641234286201	0.01918706188638172	0.01510021640196066	-0.1644559825716947
0.01290560352036092	0.05253598468751746	-0.02736209008121331	-0.1567978092527304
0.01603937927605738	-0.003405318383840315	0.01008825671667063	-0.09660320309458843
0.02040559107941886	-0.01602251295077457	0.01511292989165749	-0.0472942353309619
0.02228515032772453	-0.02912792958752632	0.0135125866270223	0.001968266658990235
0.01711359362176172	-0.04512890417252947	-0.0256523266123788	0.05837470534432197
0.008475993515970436	-0.02548377511766532	-0.03388587353424215	-0.05281440431011504
-0.01911810015697514	0.003707763159612737	-0.01724591563719821	-0.04378313299228282
0.0003930305912079618	0.02082154338563239	0.03225172255079452	-0.05147159973907836
0.01530728513084448	-0.01986077194212849	0.1978135707287682	-0.0373760624045748
0.01036248382704784	-0.05069209418800859	0.1211644427499706	-0.03972665084748372
0.0008915433942906291	-0.07414407001923931	0.01276518474310152	-0.0959869617581367
-0.004948255224919231	-0.07276148787991006	-0.03975314678340507	-0.1122785381779553
-0.005565051805242991	-0.06975387558993172	-0.05765619031525764	0.008852268369261465
0.02032366385754552	-0.00380246071488511	0.07800885668062954	0.06222595027763998
0.01192181770669926	0.0788854307163453	-0.003128721817094764	0.00535891549249603
-0.0101621211312857	0.1117967447436423	-0.07956604741620199	0.008547313113266779
0.00663026104905092	0.1068185853243954	-0.05324341216124563	0.03362244956923351
0.0214963231962927	0.1150041425070225	-0.01534384332889622	0.05759786881220041
0.02352244391927838	0.1101679650474148	0.01497528778885322	0.05467139853107181
0.01021740444277722	0.04957144237137156	0.02905269835095948	0.03627503695256662
-0.01191144846290418	-0.02505493879471644	0.01306163080018358	0.01809011100379501
-0.003861346764437646	-0.03958969226590149	-0.002441008622051264	0.01147790291561853
0.007759355167490642	-0.02412334211043466	0.05984991989779528	0.03533692836804649
0.005006005298549922	-0.01996754645324686	0.01997810049896268	0.041145225121406
0.01171497005701472	-0.03587891668475059	-0.04684394025960916	0.05718957297994911
0.03380893912506673	-0.02206863967116491	-0.07473891508060879	0.07358706681031854
0.02522808021841327	-0.002138843809714908	-0.06786820081526644	0.06426323923728205
0.01511736188014059	0.0245007934755447	-0.05323172446724562	0.05788042896200507
0.009034992914982035	0.05511582179437277	-0.03218667353831664	0.04014758368115559
0.001856274167671617	0.03281705796882625	0.06297392793477821	0.02378179617251832
0.006055380892021137	0.02850159113212826	0.04271626507125193	-0.04735090257328057
0.006515469622679074	0.05710806675304388	-0.02647125434392594	-0.0502715193640071
-0.0143715930855883	0.02288052281649795	0.06043415015086391	-0.03679275414795291
-0.04503552631606168	-0.07570671801169473	0.03431532917072024	-0.01932499957320176
-0.06584368555808889	-0.08305425787554369	0.03640894416053862	-0.02917245391214132
-0.03811895314443019	-0.04077272341787556	0.1629576191901381	0.03377028808173011
-0.02533408590238446	0.01247898300361064	0.07742660083756225	0.1756470169170654
-0.01213386220409651	0.1034218375645101	-0.02337142594439042	0.04730772644758683
-0.008437716600122243	0.06176443988124253	-0.004376804186500192	0.06396947858156977
-0.01327821591733237	-0.01715690892511975	0.08041781685819925	0.08620146252745078
-0.02341983677738821	-0.0300545964181435	0.05244364175602802	0.05156431838716003
-0.01941688582459301	-0.02008603842542776	-0.05053545931744531	0.02818519994018439
-0.01297952655244521	-0.02509849593111361	-0.05441231323510876	-0.01731441899049737
-0.008829594449511823	-0.04478380665589616	-0.01260092084647277	0.009260478537893808
-0.008555532935798407	-0.05821864086123664	-0.05960478182462028	0.02086312627202462
-0.008572795792086812	-0.05474250914643686	-0.03361867100694551	-0.0006462648044073078
-0.008532671282496015	-0.09130634776145942	-0.01061691015210494	-0.1040953369311173
0.002253161536950761	-0.07092224820370099	-0.02520738232805074	-0.1245709173250826
-0.0004802634921706768	-0.04923684351492537	0.0314433716094763	-0.1391717174314498
-0.02761938847117288	-0.03618467979991946	0.04181549766599029	-0.10915072665306
-0.02530668982636278	-0.02263282145215605	0.02534521169898872	-0.0841145630578983
-0.007858757748950663	0.002256735854075621	-0.1386084349264835	-0.02274665392285889
0.006811413077518256	-0.005658690986519923	-0.1662575266020943	-0.02484857279399604
0.01695369126550553	-0.009509998735776416	-0.1619554072506328	-0.02280076922135412
0.02360212505545729	0.05538802564055806	-0.1171226176101346	-0.03109544170169128
0.02566690214431117	0.09116782330978795	0.0164321478051771	-0.03930281325951156
0.02735711061504867	0.04593107602007962	0.06223878064095514	-0.04550201931746539
0.0240314787404975	0.00491876257911378	0.06393861543112737	-0.03842504516220097
0.02582391380475112	0.02511626313838883	0.1784780455876222	-0.01701627479173056
0.03142993382631358	0.04487976788988247	0.126961032234219	0.005680030936915876
0.02388398921174914	0.03799228251662896	0.02931554328148879	0.02067821710367421
0.0136294905339916	-0.06797166809001093	-0.03572850328466896	0.08318875050767034
0.01195724865709425	-0.07115784756787845	-0.07385927528369579	0.1194321232264774
0.00671845615242362	0.02549414249361653	-0.07427739973076265	0.09796812718010348
0.001309398117811114	0.09056858411217589	0.02465212277317308	0.1195155409922316
-0.007528104073784562	0.1596440207218912	0.06389787431112265	0.1072930523783492
-0.03047734352521133	0.08907719872940334	0.03526433252061974	0.0573193279658516
-0.02179379129273143	0.05709291667776115	-0.01922089410672085	0.03443694377706898
0.01003789972916374	-0.02886185989089075	-0.03310958232918845	0.005956839587180096
0.02169055785219561	-0.0582427775169024	-0.03747679395309504	-0.01799503906136087
0.01567608067504544	-0.04028540356917065	-0.04862167641167774	-0.008366917779866522
0.01471533883606329	-0.01652920407098627	-0.05976538516157991	-0.00578532971618854
0.02060762609964724	-0.01407116169963481	-0.07207268324151442	-0.009247532672247271
0.01895409032548259	-0.02758867311079538	0.06373569220579557	0.05181687494794498
0.009908810959080852	0.005976255347174953	0.08948118610704058	0.02696646511916975
0.02939902825876937	0.02146430420296195	0.06075178023213897	-0.007400674687706551
0.01680633168735987	0.02507742461508306	-0.06814402209153661	-0.0464836741645562
-0.0577915927321953	-0.01626208585992463	-0.107740934335349	-0.05749738730783412
-0.0760022363274576	-0.06028216547021376	-0.1193194076638453	-0.07265231157022251
-0.04173166555368588	-0.06768510615766617	0.006792305728405054	-0.09004204036291362
-0.02420291244678022	-0.05158747078743028	0.09711696332115352	-0.04413602147711906
-0.03374251379575949	-0.02388219907714935	0.08336933309609046	-0.07215843378192935
-0.00453966123806382	0.007602699804746943	0.06938221624028569	-0.05316287635831872
0.01925512183210979	0.03452418317260522	0.03781129731610212	-0.01217344116925642
0.03839036960331939	-0.001823325139383456	0.01137672103566193	0.004945984119711636
0.03414246380100418	-0.08279919201418823	0.02165293660151829	0.0506671642487173
0.03151313941618322	-0.08437670065424702	0.004400784274285125	0.03566514480722356
0.03803062817078734	-0.07761009321583813	-0.04862580411800561	0.02445984922010026
0.005765623938519304	-0.01364348063512449	-0.05314888420263465	0.0154379140562112
-0.02767863005570114	0.1000810327747137	-0.02472240924812675	0.02060554522425884
-0.03648006908614312	0.03926002771495741	-0.06233021068253579	-0.006955588060163511
-0.01403142944792081	0.01615772949643595	-0.1217116268215131	-0.02689303455101366
-0.01419719158524579	0.03152572183696967	-0.02187629322323079	-0.05068957762568787
-0.02002294062536271	-0.01022651611417229	-0.02632124607530607	-0.06129484800543671
-0.01470034183010122	-0.002198959238712949	0.03749584216414404	-0.0877372225516859
-0.03088884401930316	0.07753443488273196	0.1531229027067867	-0.04112693978918269
-0.05579795484549524	0.1274513419638578	0.1523239578195847	-0.03385844966709249
-0.05515739504344423	0.09634853091594797	0.1972783602235869	-0.03009944065140312
-0.01605864542285404	0.07067222356482449	0.1519667932870297	0.008677086323422553
0.0007115931877209031	0.02339518695986138	0.001008617443162497	0.05101780694054776
0.01298664287121593	-0.004648858485018803	-0.04052896179036558	0.05287347864309597
0.01249489344811224	-0.03970667417066895	-0.08439420625595777	0.04846706333852928
0.02688357600758636	-0.05313492039541333	-0.06969302668330254	0.09353082606479085
0.02784270924869766	-0.1188790412771476	0.0571803640882704	0.1288570546721112
0.02083292265169274	-0.1313049786601574	0.07385823209193525	0.1030751936152052
-0.005336126752534664	-0.08679138002260228	0.00457754336512745	0.01986130102259526
-0.02474991363921432	-0.03848287566120875	-0.01349931889543391	-0.06982848253677348
-0.008555849827106301	0.07029667855674807	-0.03495331862523716	-0.1074538579596094
-0.001871251386630194	0.1396966868715345	-0.02724915613540632	-0.1150577779453904
-0.003974240111269631	0.1213151504726623	-0.01989240424264008	-0.1601803061077622
-0.01178208517637603	0.1101221352510146	-0.02472365312678646	-0.115128917374128
0.0107880070809124	0.03810703380292525	-0.03423831674175665	-0.0545163406800359
0.02118865887294177	-0.002834949893704801	-0.03598614983038367	-0.002190484594057669
0.02317140946196125	-0.03502859112410897	-0.06838807542735739	0.02486530996131981
0.01848536281757795	-0.06487302577439943	-0.07490770833931906	0.02303844567331543
0.02202461119977661	-0.06884385124041785	-0.06098141415667621	0.023926912120925
0.0241138475415692	-0.06437968353680537	0.005556963901927075	0.006794186242466893
0.02628716877380919	-0.06042405212986417	-0.01323418848770921	-0.0001108526905801537
0.01475833359719319	-0.034234557025232	0.01081938706259894	-0.004758643064639711
0.008444190488073419	-0.04379535658879223	-0.001144568381558438	-0.001691729668918973
0.008565727374696713	-0.06053029584397859	-0.02542916294943962	-0.00242901225314681
0.0180717107013658	-0.06828970800824601	0.006056304830214953	0.01776047462579151
0.0228488504130963	-0.06720904145157199	0.0380244522474653	0.02081503152016741
0.02998562181537912	-0.05407563552862619	0.07552286810665713	0.03644788252162155
0.03727236674451601	0.03273726214172419	-0.0002009393081621809	0.04503090110704383
0.02701524596762447	0.1044811460717792	-0.004678339945992806	0.1064819678295031
0.02218197902516068	0.1771454128332607	-0.07438038814655065	0.1340189194439677
0.008078515856264998	0.1758680957268185	-0.1123324126644958	0.1562468280499878
-0.002894618951898395	0.1138346994200648	-0.07063510434505929	0.1210962344890098
-0.01909414718941754	0.04265473532774955	-0.02946948219614836	0.07771618230362436
0.003960074624755515	-0.04314296897786463	-0.007611154304658269	0.03161881443424984
-0.001319503877305872	-0.1095674301768541	0.1070297961629786	-0.01837787454235104
-0.0132956299219963	-0.1304709564936144	0.1461745270622599	-0.01720239317446854
-0.01723495562324688	-0.1170318368248606	0.2056153401610445	-0.01385488359391829
-0.01573768201535119	-0.1292394833040208	0.1505212625276151	-0.01098290734938272
0.003815067996334241	-0.1077816365708667	0.02086365042952052	-0.007805980518083948
0.01518329095686439	-0.06423382456489136	-0.03277429969320924	0.03321361191673547
0.008664968067589105	-0.0477227227703874	-0.05813498756147371	0.04665648545850899
-0.01522773339598657	-0.01142179920825518	-0.0939898334834236	0.1226646575741018
-0.05615321077964448	0.09852120906254339	-0.08476648064039161	0.1645205164595275
-0.02715677145453818	0.1607634001013585	-0.06828958060334327	0.1101535622788818
0.007043431998549165	0.1280949137786837	-0.1122560531915392	0.005948485821327827
0.01004531120416352	0.1612250508976978	0.008931928263179314	-0.1388934388734091
0.02853350683221397	0.1300058700077254	-0.03702078817621179	-0.2559762190348157
0.03435128488740447	0.05195052400357017	-0.08156465899414669	-0.2226536161142113
0.02896258433980555	-0.06143025134808519	-0.1189767977441384	-0.1546659570012257
0.01321903269664823	-0.06724473246315538	-0.1161796214571786	-0.1485362734763246
0.01119404337985865	0.006152831512609984	-0.08991134247417082	-0.09746240824580586
-0.03073538679291967	0.08891481844111891	-0.06082009421839479	-0.07542558338305914
-0.04837752998359818	-0.08169741101303724	0.1026960757265265	-0.06850856578330043
-0.06982010887544958	-0.06540982302034759	0.2349951894598093	-0.05082089834823915
-0.08406730596851551	0.02129281588121091	0.1679438508519361	-0.03432697676871765
-0.05609333655899913	0.03644911337426818	0.1135520073286942	-0.0376347363704448
-0.03482160300122968	0.1023979170390768	0.01385255201511564	-0.01596022831626204
-0.03517318951177899	0.02721152014612518	0.06037734387876665	0.03364663479092608
-0.04846052316954351	-0.1640545132453517	0.06563860089809354	0.07443787791032587
-0.03996858983075129	-0.3076407864562979	0.03289049677035705	0.07079064273910159
-0.01889897986751808	-0.2769521883554038	0.02105137749881283	0.07860756806187198
-0.001328117362153594	-0.1450644797538009	-0.03163448620609268	0.127089723650716
0.01717345281428689	0.110858473068297	-0.004270412823564775	0.1747603102388475
0.0351972578769089	0.06321526989085087	0.01582543555533882	0.1401965757457649
0.0322510229833006	0.2109263348514906	0.007960551410106403	0.08474535124235139
0.01757260470415687	0.09017307339210358	-0.002262196593164681	-0.03768169264323218
0.009078259466333593	0.07008515906921581	-0.004180538728602234	-0.1252996365364536
0.01063629167358007	0.06252378322950292	-0.00445887428563151	-0.1742441774946026
0.003692320128823664	0.1377570095548929	-0.03204883555067475	-0.1219985627215969
0.002296671063809951	0.2302237345378646	-0.07015486315037431	-0.07119712041486445
0.0004211340894352252	0.1411496698203225	-0.06662566495743284	-0.00966503721145387
-0.01082360281891083	0.07880835815484827	0.0021071917217826	-0.004099502538987935
-0.02327765516362054	0.0478004146636446	0.0252560353613013	-0.007851127027752512
-0.009647907443683334	-0.1402357321843432	0.001537165896613233	-0.03277569399829713
0.004523532241263437	-0.1785624173406673	-0.0385221879942306	-0.07256511041659855
0.01578174906675311	-0.1128679542449347	-0.05355225620679159	-0.02272917187899522
0.02655904527934669	-0.02083930834509452	-0.06260614674307644	0.02634028287908855
0.04707842503795368	0.1091233560519957	-0.06588568885349025	0.02872738771862124
0.03587251586988575	0.08106399439241574	-0.000710924178019857	0.05442651081020314
0.05333136911697296	0.02448275482077805	0.04279776435846029	0.1242771708565972
0.05064694529110008	0.01135115574264828	0.06559995027925439	0.1362442569254063
0.03263082817780374	0.02033679298757854	0.1325537111543594	0.06487329966234726
0.008214913327030376	0.03762567123814575	-0.01256373364586093	0.05890164173115431
-0.004969117768162676	-0.02990968841580536	-0.0816764100058392	0.05175960532107203
0.002857279040602118	-0.08270264940462464	-0.05280955840077321	0.02168865439139898
-0.02102646568977103	-0.1027809315960351	-0.05200757380640943	-0.01812861077255485
0.0008842049727308934	-0.09899892785560857	-0.08722130576398038	-0.02544075445783798
-0.002187964601807716	-0.05133488978279769	-0.05268848141447787	-0.01048690774403231
-0.0125234543621876	-0.0348212950795432	-0.04363231003280695	0.008181577468607978
-0.02674516170204289	0.01670193742225398	0.01156234480582964	0.003260812855730621
-0.02125400271261921	-0.0310666019791956	0.06425755161355681	0.01539223493891806
-0.01339788766431083	-0.04990444001534211	0.08807007661318553	0.008928511472458362
0.01011928774451194	-0.04145011160567724	0.06159855775556747	0.03516685667824158
0.02793476525999564	-0.02756708846950688	0.06287362668778096	0.0309224076739528
0.02786833875194777	-0.03562891593797649	0.02927529947109839	-0.008758827337547213
0.02000174241122004	-0.03132175842504566	-0.01106176709991635	-0.0333112555240197
0.02795906872838437	-0.03196360553270387	-0.007542186397124232	-0.01594188501993155
0.03239146437901204	-0.02102840756608591	-0.01081636534035653	0.01877042563066665
0.01871945076983827	-0.02459598969859164	-0.004673632333136721	0.001989277946759283
-0.02046564581430568	-0.06393109333184901	0.03035730272852141	-0.008290111203953097
-0.0514011180060823	-0.1436763537648866	0.05155994752549892	-0.01580762760431339
-0.07704271211884763	-0.09375117459973335	0.03612723040756909	-0.03867704673287432
-0.08631017176333118	-0.07207016135840409	0.008633591591255865	-0.05103091226496809
-0.08023159812028859	-0.04469335574107192	7.390322371338538e-05	-0.03531651540107628
-0.05202135599652149	0.06251037250729032	-0.02656580729471629	-0.03601282890932015
-0.003172524838640232	0.07035730838857644	-0.03390219981426223	-0.03056884485156557
0.01180693441441687	-0.03906929805283388	-0.06362620753164702	-0.01689095206530351
0.03394749680775957	0.02614736128605652	-0.09677972386989893	-0.008308695651511449
0.03874362656367737	0.0819333801199177	-0.1210844853682416	0.004833282344116944
0.03018063822215349	0.01609233846215279	-0.08040178871121546	0.03973761941892837
0.01587473796435912	-0.02517172669029834	0.06618444697453212	0.1186464269491937
0.02213778347966434	0.07313749542245632	0.1720072797841235	0.1487362131492207
0.03317866306533734	0.08703929204616492	0.2334364097066502	0.1190834920304715
0.02722603638097487	0.07940784898390019	0.161842101266146	0.0130554872088517
0.0328999846997725	0.169062106710757	0.08701583622446896	-0.08806424427204212
0.03834846432291979	0.1271313394738915	0.09016083160225624	-0.05007926217660983
0.03223833299933409	0.1036132545504577	0.1213333361746432	0.005850522108343898
0.01659708988105686	0.07503058506353108	0.06269158140103484	0.01465736452022609
0.009140029489352823	0.02587995353460919	-0.07211883773225015	0.01871415524732256
0.003871042372262053	0.009209712697897516	-0.1073047349237332	-0.09077073306218833
-0.0009390489096511317	-0.04006273353483984	-0.08465172163233517	-0.1741222998794111
0.001464591886235722	-0.07728395771078551	-0.08319005631639689	-0.1460394574651299
0.00494842017529737	-0.0890893860806912	-0.02273004202553972	-0.1055256174362776
0.01497733789473127	-0.05055146351108237	0.005572395266874903	-0.07966832263577012
0.006192219590864425	0.00206302171598876	-0.0244607748941867	-0.104842393225911
-0.0003826285515201398	0.01171942762708282	-0.01050266358974563	-0.08961727392266372
0.007213254600222699	-0.08834818286162832	-0.04492650491831866	-0.04602496537906907
0.001670666939333305	-0.1463440024423345	-0.02967225956566008	-0.01996438645383095
-0.01138357529544639	-0.1029052752669966	-0.01865491549923259	-0.007362801953262755
-0.007383044573112796	0.03051422407522989	-0.04845904586934808	-0.009831236348487156
-0.009191435316217316	0.07166142676533274	-0.06502041619964653	0.04219881783565046
-0.01163839114418025	0.2091801576734589	-0.03619700720072593	0.09128582864198226
-0.02206599825235777	0.1190420996048691	-0.01755722451171537	0.09637184280105605
-0.01846609267500441	0.02138780973073811	-0.0106723949625821	0.07555901773797086
0.0002876980345121928	0.01559187940432065	-0.05959221851969017	0.01256861044636038
0.01178780458587243	0.04812909076640719	-0.09786303959802291	-0.0186437053672419
0.009110513134994575	0.03362645984648562	-0.1046882802950249	0.01730499143008037
0.008064523940221313	-0.01476783644322886	-0.07419832092440549	-0.01457053470846495
-0.01734310470883568	-0.08030813010147561	-0.0404454495678544	-0.004902403896303915
-0.01492039381078154	-0.1244970344105675	0.007715513512584199	0.003008026543362406
-0.02259052307823688	-0.1709131862289761	0.09056921410413549	-0.01462161254328444
-0.01968577723489692	-0.2005867024118463	0.0418579239481956	-0.001052576206443924
-0.001553929583500437	-0.1407367292652405	-0.02026023172075387	0.09010845590135319
0.005066866606493494	-0.03156841694798507	-0.02493025886539914	0.04678691668939412
0.005164790415566636	-0.003685972108037186	-0.002732013441416218	0.00874162030555097
-0.01218272790631876	0.02862922360323437	-0.02178018644915716	0.02917990552232815
-0.03967755862367013	0.04513643946438441	0.05168646383174427	0.1164814008256375
-0.02705972826064855	0.08769000480299745	0.05597923100082274	0.133409373012625
-0.01365315352864017	0.1918640533314102	0.06349781281747278	0.06054606771348771
-0.03402245098303784	0.216676304191565	-0.01373344332932364	-0.000790007946885371
-0.03000562963262981	0.2009409453552487	-0.09462280348501775	-0.02850268917219817
-0.0239114489271881	0.1786319316564564	0.02881559793777808	0.02972287360047247
-0.008205483274931485	0.1113436186381644	0.09513573004698242	0.03974096522834666
0.003139604791364475	0.02948669699223904	0.03736145851530488	0.01481432389618418
0.004347019638605241	0.002829906837947403	-0.00541501050063809	0.0069781847313436
0.02417303660462819	0.01782600759194493	-0.01677924199842081	-0.001848247340120719
0.02295119899428568	-0.05912315735177954	-0.01273284622447856	-0.007299948323722823
0.01527006412691977	-0.1538913600408159	-0.01956618820261956	-0.004027509314316883
0.02187966047065746	-0.2727389201334767	-0.0293751085112798	-0.00514688174908211
0.02116961058072103	-0.3306219707026067	-0.0204037305357113	0.001528991053317498
0.01781310487105733	-0.1788416945105296	-0.03723521774547525	-0.01267158077910682
-0.01151725706030194	0.05372600447980925	0.02451421347943162	0.007435284567875183
-0.01966619010169982	0.1941398794697459	0.1248491507204948	0.01942043194570537
0.008326526258701868	0.2915913039548482	0.05173597404275165	0.01801445587179271
0.01068334500037793	0.1474517360295289	-0.01837538228857337	0.01190902413504763
0.01092380013747827	-0.03576378989007351	-0.02973650719101368	0.02749195148494106
-0.007858994578341874	0.005002611990472617	-0.04883848998383699	-0.001293300938323611
-0.01718159249374746	-0.03859776826334463	0.0701368021780911	-0.01933557052212335
-0.02387796173394641	-0.03284744022403454	0.1180684800912014	-0.02982174123512589
-0.04147001091751018	0.01609335529274365	0.1174521882826493	-0.03619056669213319
-0.02938681769253335	-0.005096424433195899	0.02767712847869002	0.05197076424491053
-0.0164332088557396	-0.0509573491483936	-0.08209700856863235	0.09000655813180304
-0.001654878352109177	-0.0438454542210751	-0.0903061454847443	0.05950636970575999
0.001295242919668755	-0.02268692969850061	-0.07248667378763046	-0.007110604082313865
-0.007348570319519971	-0.08608455045880525	0.08831636588657156	-0.2386963300741897
-0.001493599217783858	-0.08954080118152853	0.01491736227605312	-0.1881875042113676
-1.462810531379201e-05	-0.09986386744545189	-0.04831890755194227	-0.1229145802242258
0.01083615965818865	-0.1166746699928435	-0.05614371179502074	-0.05998137074564283
0.0238654690906622	-0.06921826207499239	-0.05603298032872832	-0.02531889809102196
0.01621141237193462	0.0197412005511421	-0.01722697228490865	-0.004808619276248899
0.02876380254141764	0.08426794003995017	0.03755437586156064	-0.007742633122596905
0.03987649897898136	0.1416770192864183	0.1442696861095246	-0.003407284496826991
0.02875195036864949	0.1358638319636946	0.06033055459223974	0.01164917880529891
0.03095887762259488	0.070107890992486	0.08262113705420668	-0.00456342257821464
0.05227139397445772	0.01842495886170301	0.03210175546597375	0.0008968148245836664
0.06256426026452933	0.006859361092919276	-0.003821769531274825	0.02485534979446855
0.0458446898414814	0.01297562978284781	0.03142726180610031	0.03076860905150994
0.02456102769412073	-0.0005985104458094215	0.005946252426591844	0.02541675298441469
-0.02250265802627106	-0.03490773507045833	-0.02780189718082207	0.02111099392145864
-0.07794283461592665	-0.0344643347574682	-0.02291249191423392	0.04826149115732067
-0.07951851550825309	-0.04164866477401404	-0.02419496707809658	0.09696979205072642
-0.06999892953073392	-0.01348760180700649	-0.05981141233903965	0.09689506540721556
-0.07928956996859489	0.02356586643987925	-0.04199489909204755	0.02157530096886587
-0.07401086568495896	-0.01120656765497352	0.007932772193549403	-0.02653275276595668
-0.05114360085614657	-0.0107644338311449	-0.0385068597225804	-0.1152951671885106
-0.003870322674322409	0.01515400577347534	-0.01973257710219625	-0.1769276432531489
0.02947314312889555	0.04538138984914791	-0.03039965255683997	-0.1451821718504903
0.03161914840325299	0.001152938997509052	-0.006376831268270612	-0.06571806244607896
0.04303849337654119	-0.008983335681724328	0.009461118989601485	-0.01506442884289243
0.04747133152264699	-0.006005275701298459	-0.03077894941636279	-0.02314751667601241
0.04448070828981007	0.003737162952394616	-0.0384377407314187	-0.02136011429298015
0.01941793416963017	-0.03374727293025861	-0.01141980771903679	0.02358541841191402
0.01638402760656051	-0.09746629548014893	0.01741067011173681	0.0949162896178513
0.0219943318254808	-0.1288231298891901	0.05751169581548182	0.0808213526164042
0.03239137220858316	-0.09268355255585009	0.0209127748299374	0.003996701348011934
0.03571711667289629	-0.006175253596755084	0.01970989510553286	0.01007780513491359
0.03527108942775923	0.04200531644623325	-0.01447012903832181	-0.005931742341240976
-0.01834657620604644	0.03163107921312282	-0.05011396566601773	-0.03697245367721747
-0.02935782473894604	-0.01031393818838966	-0.05095500743574147	0.007198074996260968
0.01243702280515894	0.004516513299114414	-0.0354169637867016	0.03819088223607758
0.028533581288541	0.09092079343327245	0.02044933331913559	0.04679345102724584
0.03575800291606852	0.1278571565335724	0.03988335238424109	0.03274504804632421
0.02203060217439183	0.06838694881612699	0.07181079157545278	0.083264676135379
-0.0102494545153769	-0.06276826319681897	0.01397293215819665	0.2318895739782814
-0.005383117975801158	-0.1343560070888806	-0.04137926747694232	0.2565515790778803
-0.0004204351329519544	-0.09829092815800029	-0.05344939293038598	0.1726794210180122
0.002745136069223801	0.002281897655195045	-0.03587975999628563	0.06010531445700882
-0.01597672716112452	-0.006862046325133842	0.004707927993299495	-0.06730152040564438
-0.02599466447618388	0.06819953000402632	-0.03574161794547154	-0.1764442691293849
-0.01396004823138023	-0.01680050439779274	-0.08667852592203742	-0.1817208088010646
0.001863487014546764	0.07342979442131853	-0.09671396608040646	-0.1323480236604015
0.007289694016497364	0.1897051217472266	-0.07676165420033611	-0.07846813341253941
-0.001824951778238593	0.1587045187366227	0.0317427588962861	-0.04118073419857195
-0.007271498997612689	0.1180262625839012	0.1070439289421219	-0.02288220693908107
-0.00592905134336151	0.02027539710039946	0.01579204478560087	-0.02760055277141952
-0.01545532776227572	-0.1750866870181439	-0.01838412196776384	-0.03611551357017893
-0.03348577403468543	-0.1850983090555557	0.07103774860991866	0.02365983641181328
-0.01758012296818046	-0.09572679992791644	0.07889639186896021	0.03133658747148452
-0.00714070302159671	-0.03303685257257267	0.1159916686157647	0.02196847257198737
0.001317400574194863	0.1732220668402826	0.05034360526272703	0.03188839320071447
0.006830463543270581	0.106364517167905	-0.03044349087392367	0.07917062893872981
0.01507349813045682	-0.06569006390459518	-0.04471760035565341	0.06140821173402276
0.03334933678551278	-0.03446964204501528	-0.06036987928146318	0.04026850677615252
0.01461506475749209	-0.01586022079996541	-0.06150755094998193	0.02347494470073328
0.005253394698115904	0.03265495980718824	-0.02855898504876123	0.008966347241039164
0.003416119123296671	0.05492684795166451	0.06615807647441015	0.01698291977288006
0.005587972677151522	0.05977488291071022	-0.004621413861846346	-0.01777102990321632
0.003327030964596244	0.05685551925988989	0.150195467565922	-0.0371698249167472
-0.001770031058304824	0.01727303639797366	0.1061807274658714	-0.04879587865751403
-0.0169448641568411	-0.0455704808411948	0.09029019082528335	-0.09667889264324957
-0.04095776756772716	-0.154455638432443	0.07541899527648457	-0.1067516842801248
-0.04725252508241724	-0.148505558769168	-0.00230163468850726	-0.07879228959047746
-0.04711150290995167	-0.1035637953302319	-0.05524016588216526	-0.02757622710767597
-0.02459105316334921	-0.01338306782320911	-0.04379526766072846	-0.01471274217685649
-0.004595670190550918	0.1104074155816342	-0.0216956674181109	0.007230258912668047
0.002296236606542856	0.1231872149400909	-0.03539492153151057	0.02400004041868023
0.01495738319631766	0.05281031602385959	-0.03513605736434219	0.01383553188413899
0.03369754043415107	0.04188195054506749	-0.0253963203238885	0.02300586790487479
0.03781246222103882	-0.02054153440739236	0.008731575614519826	0.02047670805030046
0.0372445549806845	-0.08196421181303791	-0.02026624825188858	0.005603737653129505
0.03569627003053056	-0.080357574411211	-0.01665198576180719	-0.01184592958210164
0.02933605858282598	-0.03856646415962289	-0.01732852331638901	-0.003687292982260853
0.01922994280407399	0.01683865479659277	0.001555329540640959	0.002758894219811949
0.003639258483812355	0.04184150682960884	-0.06006213949233814	0.01450746441247621
-0.01910415162258761	0.1020411351937966	-0.06571235568282563	0.01364785601042994
-0.07500431253511058	0.03681196861963202	-0.05025024104711443	0.02177503943793296
-0.09771326348536076	-0.007582775783743555	-0.03600131028212099	0.03071926945871888
-0.1040510192059669	-0.006180896318769461	-0.004046704956945694	0.02291248921022509
-0.05263386014899464	0.04124864008621777	0.001014949751035257	0.0009482585705789328
-0.0009889221338606074	0.08618456480928613	0.0622479927321098	0.009563494500170558
-0.0122478678111326	0.01865426755048158	-0.03197742156199141	0.02816684624485985
-0.01540722492121036	-0.02804652508869429	-0.1007736427359862	-0.0004623078270164717
-0.001254829585501174	-0.02181665669813602	-0.1025555868537259	-0.004828902105314974
0.01090602860351597	-0.0489170514301495	0.0004219315433724941	0.06289938463765618
0.02203321822034678	-0.2011930521381824	0.04243490483412447	-0.0449476343213462
-0.003610666759352009	-0.1699295082870518	0.1036391525723968	-0.09280642453593951
0.02360142912719651	-0.06980876301065078	0.1496860102466187	-0.005413048486534257
0.04763559241312226	0.03281682211227448	0.05262292758731871	0.109459107142579
0.0450978010392629	0.1644012283591509	0.05146291575040559	0.05825182913652795
0.03305929396987888	0.09682088639292506	0.06096933147287567	0.02483633331514377
0.01835491562062897	0.06502532863731481	0.0543795164894247	0.0322000614029227
0.02724488008397287	0.03695857370969118	0.03267906720419051	0.02503916621581168
0.02451119796660343	-0.01796058731303937	0.006255357184656769	0.01102419937788893
0.003447079034295291	-0.05296618403977391	-0.0343293019856717	0.001977456507303323
-0.04912281234708066	-0.06741434416227229	-0.03940372034335899	-0.0008442261849893377
-0.04585280695747382	-0.09095232545266133	-0.008919794628528601	-0.001167100434178898
-0.01269371811327428	-0.1311688562297465	0.00394334912834999	-0.02702622985362193
0.009411081568993842	-0.07950310900034484	-0.0001490977104514758	-0.02172285634258209
0.01459300315817324	-0.01637515703781859	-0.01466663533309097	0.03795460419880523
0.001901029216542762	0.007333442961023504	-0.05704967175801671	0.06181777828519626
0.01166115603613613	0.03872872354584568	-0.01464731510162124	0.1087281318212819
0.02933544634001277	0.1789607504063374	-0.04772815361921486	0.1924065736147891
0.0240709559936445	0.1166061028223174	-0.02493128304302389	0.1410404472713489
0.02226642341108898	0.03536028991759944	-0.04650296693990777	-0.02171419857525062
0.01216485100921338	0.03968200672772825	-0.1012668971671763	-0.1227009163089507
0.01685464338039012	0.04956931283806467	-0.08616304735757409	-0.2591064407673752
-0.02181146817087876	0.02875862536647567	-0.04671434063105627	-0.4013831634710902
-0.02546166177458455	0.002395362918336667	-0.01940420973285667	-0.2964046495630164
-0.009831135937004694	-0.03036421259223315	-0.03864086049239776	-0.06360310791418142
-0.00218732052679487	-0.05096200877771057	-0.003380698756024006	0.02190043286673853
-0.008695830783168079	-0.1137802624825182	0.08843902007997706	0.0207219547671124
-0.0007454180299592536	-0.1251332398557173	0.09661398527127836	-0.005472088764271372
-0.001640860041833216	-0.0802349069283793	0.08588638220112499	0.01292817520826253
-0.004286787067815888	-0.02597688885342392	0.05979787459937787	0.01839103849306094
0.01215467288197821	0.1108634946205774	0.04276803142244582	0.01478710018109376
0.02807171379036386	0.1887960895256464	-0.0253281337203109	-0.01418625028826341
0.03669196816525875	0.122321219201306	-0.05615158896233157	-0.01183002156606995
0.03018354484685264	0.05871331610890019	-0.1080022374737429	0.02976431730729184
0.02548151043414238	0.003272666949884638	-0.08184278561551857	0.05827248792166277
0.03108201584708578	-0.005799513220563257	-0.03850397394481861	0.06774800064272225
0.02646717644558634	0.007146563354283733	0.03763018513078534	0.0647490754494281
0.01006701127575073	-0.02380583529633776	0.159928278690173	0.01354165912868029
0.01428905243446476	0.03637312443364614	0.05753403446270874	-0.01709056864753684
0.01184666673602857	0.02796487763356375	0.01484166816791328	-0.01300107888603538
0.006667485203310957	-0.006065795245628353	-0.008236420147409029	0.0003969757079644999
0.0007578658434870414	0.01587473640945461	-0.005058276287965654	0.00474031965814522
-0.0238134938670496	-0.01359032082275284	-0.01584748570829996	0.027296415570793
-0.01366844836615684	-0.04198093154387598	-0.04248991718146042	0.03279084684077366
-0.003331736611109861	-0.02787056082226522	-0.05399687860507071	0.0232862176917715
0.01262968100734899	-0.08192193752630046	-0.06675559836298667	0.01047784195481468
0.01511894845717659	-0.09827488203718227	-0.1115948892334506	0.07088552546105011
0.04381326313313951	-0.05078316303104596	-0.09802843840382922	0.07386414915504669
0.07040062697944571	-0.01624498707664045	-0.008119287439059857	0.03083750000514766
0.07747383022234312	-0.03722133380617897	0.02646858282838281	0.01283190297908372
0.08311468803127631	-0.04060425633246129	0.05830569695858166	0.03319163996582202
0.0600715717217221	-0.06207784460153625	0.2179817398989718	0.07864579281505658
-0.004240867644762396	-0.02366709449686245	0.2029050433621147	0.0005684306268401286
-0.02028668139658449	0.078104212027689	0.1034873604828597	-0.02904386360434892
-0.02926060499101027	0.120498982782076	0.08872754219641932	-0.01995163010043361
-0.07956443580526676	0.1117124321592718	0.05548346783338094	-0.06955771256400997
-0.1485234865379193	0.05097513150157746	-0.04601986803244888	-0.05208537570927019
-0.1351846538942839	0.005962712511555051	-0.03279599542446336	-0.0109443640348928
-0.134873596619151	-0.03002040902538225	0.005960372083109237	0.02195834804926336
-0.1914693408108968	-0.05212153460241773	-0.03648530883241763	-0.02022971536818185
-0.1115387376671409	-0.1353485059755114	-0.07300244030084843	-0.03812780862464699
-0.04694189721473335	-0.1237975340357344	-0.04830811411661549	-0.03272831843448257
-0.02789767853583708	-0.05415417425269665	0.075464587734814	-0.03977260058367792
-0.02833388373175103	-0.09172517984358615	0.07616326947849424	-0.00932008639754088
-0.01287500979842265	0.05105755742498851	-0.021976561580705	0.04866878508522844
-0.0141616232402923	0.1764912975320565	0.001086019287938162	0.08548911537273156
-0.03179928535045083	0.1551165283702362	-0.01941135875489761	0.08596105810609689
-0.03224187775129319	0.1867628736726568	-0.04571567141972506	0.09756658682886775
0.00594873719522552	0.06540242349805264	-0.006741280089232778	0.02324231256028931
0.0312940381379934	-0.006120286019979542	-0.001236256787659238	-0.07133763526100297
0.0271179255993801	-0.005518962666282751	-0.03032757537856418	-0.06240622575966084
0.03153815933377067	-0.005267824200324379	-0.01364431766889215	-0.03600144952191225
0.05138621175137836	-0.07663542382858249	-0.0471844317776443	-0.04873897584973211
0.06159093730332073	-0.0502832702503135	-0.0369656615673597	-0.06363310453047764
0.06086179682352593	0.007878410207124435	-0.007386089343104788	-0.03341350125758433
0.06504372338068691	0.01322664560259535	-0.01503744952321684	-0.02314568405712695
0.07039383591629467	0.1396409908338327	-0.004412772096510649	-0.02346954314846843
0.05487308374609845	0.1480835194435684	-0.02025920603964016	0.01084621557742383
0.03765275491880625	0.07367119513779061	-0.05965601290432525	0.01934940168851975
0.03293656526279315	-0.01814318553786691	-0.06914605085248679	0.0413591112231788
0.01730648865653359	-0.07395476572205914	-0.03133940126165973	0.03916340413648276
-0.0004614106771342103	-0.1090076539037719	-0.03347541827473671	0.02304534749979184
-0.01115620882746351	-0.1042257770186078	-0.07497832068340934	0.002607644921023232
-0.01223499104089734	-0.02023618187301316	-0.07672217901171467	-0.01123523058766528
-0.002303445053576087	-0.02482767986501139	-0.008187452209161663	-0.03571994284208165
0.01063610688801938	-0.07585456232298611	0.04024356928968656	-0.03913736430933226
0.02191876574915417	-0.07590557461710747	0.1283737449207832	-0.008704445992140932
0.03205239676404662	-0.06026804584314296	0.06210878080416464	0.01899763581635824
0.03812923570944989	-0.05898531959247699	0.08840610102504354	0.08471175740660876
0.01634091288386086	-0.08122470000005531	0.06908260721669132	0.1051250522561543
-0.005280866764501508	-0.07041776622734126	0.2143948674596287	0.0571983694327367
-0.003433233294415785	-0.0523329623274708	0.1739511832552446	0.008839501596994783
0.004434178736830899	-0.05553784342354622	0.07339488013078906	0.02035065952743762
0.01072379816504404	0.008703965856578781	-0.01651018654945693	0.01007561822405389
0.01901501896911056	0.06796626346850912	-0.02220490734840035	-0.0161022242966536
0.02624341767835987	0.07494511367761839	-0.04465028336509872	0.04083271406154258
0.01963884886060503	0.03643553074931868	-0.05500956651274123	0.01291090395040072
0.01577386166067245	0.01354131557402325	-0.05384575462910088	0.02279791970623805
0.01082732872678187	0.001580940183768509	-0.04027110083164117	0.03755940680028111
0.0006564269941328558	-0.005874626857323414	0.01851235797767915	0.02011132344002877
-0.002360434688135711	0.005556433144934739	-0.002897752998881275	0.01956290670654892
0.007114625547475256	0.03961823642677327	-0.05363938612930677	0.01434922617901268
0.01126206647642443	-0.007896806306689338	-0.04255851974336799	-0.01294431483042853
0.0005207193641143892	-0.0466372216146323	-0.005792255776534397	-0.03289066078423233
0.003013738195221193	-0.04619004559272342	-0.006923506966584735	-0.03482196047005462
-0.008434563571849298	0.02131704655442898	-0.0351653193394645	-0.07637826579359693
0.001739211653929082	0.05429660804878405	-0.06289303465080379	-0.100969031999986
-0.003217437436332476	0.02839869698521212	-0.1032189074496706	-0.1079866745300944
-0.001601943223904469	0.05130593826708622	-0.1655579286395362	-0.07002631853631919
-0.01036531069624397	-0.08545226647470403	-0.125466274768532	-0.03577161737461629
-0.03664169617004911	-0.2136472159849906	-0.07347113839570199	-0.0187101604484491
-0.04892383253041969	-0.1457568590811525	-0.0733898799458257	-0.02215477223581407
-0.04469304254968949	-0.02027276369768896	-0.02574161397260619	-0.002349705102701868
-0.03554297873123233	0.03874989324270255	0.1051366769759476	0.02619079994496326
-0.00152469464085413	0.1878589381490625	0.07976565549812584	0.01779807725610135
0.01346995937947594	0.2161227079427596	0.1196408114679148	0.03593274981777032
0.0265096131914903	0.1142521980870058	0.07529756759856571	-0.004704284239362612
0.02097921729290454	0.1498007174139103	-0.06011261889631522	-0.06649957959641917
0.002434089173670476	0.2048762929079751	-0.04180560677875216	-0.05446463794071078
-0.008496973943070517	0.04494077755375728	0.02362928605281489	0.0393167725993236
-0.01700591304133741	0.005525222794545931	0.06725497223939354	0.1312140961314024
-0.01808373254375693	-0.01269662795379656	0.04434296081606965	0.123408659298332
-0.0518953844323632	-0.05334146316327931	-0.01048119225222392	0.07519575692824967
-0.1092829036810975	-0.03369419781220173	-0.004183485788748889	-0.01812478273640926
-0.1106887276288234	0.01869721181788697	0.04756074058399176	-0.1267303830510008
-0.1148341880627028	-0.01024886997153253	0.05020140425823392	-0.1340976917619016
-0.0606431459961992	-0.04547161257710722	0.02834652319961613	-0.1399279136704805
-0.0152645062116376	-0.03792370803750024	-0.01665294644859826	-0.08873478045058382
-0.0214695290028379	-0.0189713907270169	-0.03598256868988153	-0.0456187684953762
-0.008098915548267624	-0.0003082655953677947	-0.07244041276048639	-0.07527712288537013
0.02353824234445566	-0.04069467497311523	0.02473093424455263	-0.005335960563628919
0.04118909418763216	-0.06400083809943727	0.05637290503335681	0.02721072850066111
0.03369498337361457	-0.04650349445540538	0.00475763421012731	-0.02437957859586222
0.03417570473694402	-0.02053615424948466	-0.06488359212858896	-0.003217657953492218
0.02418608986366574	-0.01892541715748934	-0.1502912210541728	0.03716997806090455
0.02516410659211324	-0.008430594393072652	-0.1604652914112531	0.0540398596118514
0.03897881734279492	-0.0646263571915873	-0.06717391730451984	0.07348746458200713
0.05100282561673692	-0.07076838013175146	0.004293018385200714	0.07479876703244892
0.05602600931300598	-0.03910750039180447	0.1053466572185794	0.04597821991369615
0.05162160067859146	-0.1147150334916089	0.1081885659281731	0.03530193801424721
0.03345769400053118	-0.1675526289119487	0.1179413662929405	0.038619455105964
0.01925575256265687	-0.08213431368376348	0.01004984942696447	0.003088271352314939
0.01185888384596823	0.07471304187814617	-0.01638139791807233	-0.004343437299438724
0.02176180211473228	0.1626414074789931	0.1158204355660971	-0.0002228411316196491
0.03220990154624526	0.2885112592278365	0.08215914014979654	-0.02366726382592911
0.01521245590864528	0.2837189689409702	0.04489099299140642	-0.02969964012032143
-0.007438089538172003	0.1263264612018194	-0.01472105333291796	-0.02001394112592756
-0.008370416339396508	0.02565686970431991	-0.01108007614205039	0.06763138897622617
0.003215227471304167	-0.01945085498247051	0.05267800443976996	0.03173126359723605
0.0145728969525395	-0.008285664777829476	0.0307997008919384	-0.0007051651055915264
-0.00826838423488559	0.008237602878179102	0.004007252252446465	0.05622962705222061
-0.04045594359438108	0.0009689404178994897	0.00994885743158321	0.01598480306205346
-0.02787793014361701	-0.03304688486308717	-0.005212728157915274	-0.04646421655477451
0.0009130359511588143	-0.06121856895922983	-0.0159625068404783	0.0277611726562156
-0.006039656236475351	-0.1112921984507755	-0.01480806500841029	0.1240655297557796
-0.0001585206011777758	-0.1607667595563179	0.009962529740793332	0.1541629555701005
0.01520510220511275	-0.3900466667579402	0.07799380630933157	0.0965960411030283
0.04248253292860323	-0.2335033983073616	0.02262408825098297	0.03566359903052619
0.03250894959623579	-0.06799229359187967	-0.05864223138071866	-0.03135373549725094
0.04163149387752912	0.1854541269634556	-0.1537821367517464	-0.05446764410619803
0.04310872113699409	0.2351143637591945	-0.1696405902344004	-0.03387695467268564
0.02491354733959121	0.2211654493681054	-0.1310938270052254	0.06482228512507093
0.01720579546681228	0.07155667530081371	0.1085806281790682	-0.02435809364913169
0.01950832551069472	0.03650399356353697	0.07004633025671403	-0.09538076868537246
0.03593496844207758	0.09266432611714938	0.07874886212578419	-0.1222073792592902
0.01214383077701995	0.06722543340321845	0.07373894082833589	-0.09800345630323276
-0.01548446716507148	0.05019966857233329	0.009692998734723126	-0.04354738532183781
-0.01140655640066155	0.02448290632209174	-0.03118191190117796	-0.01131231000641437
-0.05216391872152017	-0.0005541839680390766	-0.08217977986354656	0.01439848288079816
-0.06549619372439834	-0.005554348266959272	-0.08402706168607564	0.01017063239275704
-0.03505611268105466	0.03574572161091128	-0.067141551908056	0.05041757019517974
-0.01710140511320212	-0.01253323018008635	-0.06351877967182976	0.1876883498142229
-0.04854962737054954	-0.07060858866715822	0.04807533484629915	0.216876742758289
-0.04027555973109638	-0.08003031316149301	0.168868175540699	0.1151561995940058
-0.008395909304926438	-0.05606871751856106	0.09056469030724955	0.01432010295884695
0.008203156502539517	-0.0670797908041729	0.02321177371707843	-0.1378553582001394
0.01248531540830589	-0.08477929385869751	0.01504517280758277	-0.2944151251274532
0.01312139014258495	-0.09938280159377405	-0.02650696884972587	-0.265416517336526
0.005492951182504461	-0.1109525634818371	-0.05324307375680977	-0.08647528353766762
0.02950161380987472	-0.1103822442568474	-0.07965931745188522	0.01885906735108878
0.02613628754072332	-0.01533946159567514	-0.06899982038166105	0.03904103240482178
0.01602871437402238	0.006288202313642278	0.06402487877556108	0.01611056744268985
0.01444300682164726	0.02214795198966781	0.1418160610695314	0.004889601258066115
-0.02798521268005932	0.04135996046806535	0.1000997624764468	-0.005196242901447386
-0.02934214184649498	0.05550221925795574	0.05131770096873848	0.002253670796485107
-0.01924227544302711	0.009487650880016012	-0.02007109196173537	-0.006183450597123089
-0.01837854274858824	-0.02998660336823075	0.01963191802059491	0.003466018058638705
-0.04705955987817264	0.014079454689544	-0.02263340500701001	0.004469712445707572
-0.04577709196573666	0.05095226506706527	-0.1032625936281784	0.02319927280957843
-0.02363500756274007	0.05250700049147115	-0.09194081197234379	0.01928174657379898
-0.06749330720138663	0.03347951238123009	-0.0156614680606579	0.01623449189235782
-0.08164281625279569	0.003205770711472526	0.1187641374472189	-0.01014372448652014
-0.04010237190793958	-0.004970440397264216	0.06263474205087287	0.004639400503157695
-0.00864808878413157	0.009855222528337319	-0.05483602629938998	0.01641854329237191
-0.003118905465651924	0.01305641298981564	-0.07544185857726413	0.01965925072534681
-0.009545780580667358	-0.03188258789327929	-0.08716452395328976	0.01132237005533945
-0.004330445515599222	-0.03452224507760902	-0.08552192936175666	0.07220561972163533
0.01240096425884549	-0.03229555780088991	-0.03600543689058392	0.06819985087109222
0.01783921487564715	-0.008476400682891707	0.02280718475434264	0.007797858918221675
0.02796775324884022	0.02581476601480539	0.03086705986122294	-0.003037690526236352
0.03800979226121443	0.02178998227765714	0.1037231316718457	0.02341676935657994
0.04255240389305764	-0.03790824572602042	0.02505863403042199	0.0245435722600138
0.04113328058423513	-0.04161306515170977	0.005277799194417105	0.01835200660543074
0.04022836871946195	-0.06700081866870462	-0.001944948135455177	0.00372363063512825
0.0423844006495665	0.009128788309165619	0.0510244163132574	0.008199244394888958
0.03312017701435147	0.01509380933755276	0.06534885870382628	0.02272002858438315
0.02274560246570268	0.02643497520204966	0.123967768066282	0.1004333491274731
0.02138408230873486	0.06039208228803724	0.1209575547089967	0.07477452860225649
0.006266102234615664	0.09175286108291479	-0.02851115812187347	0.04034154244220035
-0.0160907230003421	-0.05825681349968111	-0.14722670089675	-0.03608584855480231
-0.02809399475756126	-0.07588085230621065	-0.1698297642877109	-0.1534383032999169
-0.01172905694667497	-0.05298250390992784	-0.1397445088584039	-0.1645553473424466
-0.004780591641432416	0.02291769499830803	-0.1514118601071934	-0.1079033743301683
0.02073744641313919	0.1624538236717983	-0.09108567226274453	-0.07955982561949446
0.03325224805901147	0.2135249799387625	-0.05257514708978756	-0.07330496614247649
0.03268902037096297	0.0655723215626621	0.07194637117215748	0.006948030603588505
0.03273161070527834	-0.03350746606713824	0.09162116659622359	-0.01023768558312919
0.03267662151999163	-0.009186749147308607	0.04775774579197482	-0.001075033171827797
0.03145190701827674	-0.01248488465162416	0.07806079754992319	0.008529032932007482
0.02090825748007763	-0.01678535843850644	0.06968706120263686	2.50432406269244e-05
0.01187957067383753	-0.02868655313854911	-0.01606285999274749	0.03284004582095043
0.003610493939451546	-0.07988425842238954	-0.00243595316779287	0.04885621170469593
-0.000568147952549037	-0.0666506880850659	-0.03527172617382791	0.04447763514258541
0.004916608569546111	-0.01046433830175331	-0.09099095900774072	0.01504696902113873
-0.008049171863687837	0.01815679346709109	-0.06992536312178613	-0.018434092946949
-0.0238994040164929	0.07842810297389842	-0.06144183558138432	-0.0197398430439164
-0.01612991037017153	0.1179934147499127	-0.05989187314645783	0.01095702418406482
-0.02266086351394952	0.0594021883291474	0.008161079493345626	-0.01029592181232362
-0.01967921615948795	-0.02237986949934076	0.08786340689444534	-0.008514244571298768
-0.001984244395227404	-0.0166090934737779	0.2479006395190685	-0.004263147556290767
-0.001580013874435327	-0.006736236700936636	0.2025467699704408	0.01513914518729616
-0.01743712497729552	-0.01194903488726082	0.07740257533021012	0.01718073983127127
-0.02058301587371943	-0.02678733951478235	0.01303359355101083	0.02542087769550408
-0.02001755863201925	-0.09769632079228457	0.002503929347482356	0.00445040612875223
-0.01450578509437487	-0.1538904800874081	-0.0410638499770155	-0.01990841815555396
-0.02633815675236595	-0.148063971067545	-0.06267846547543823	0.0140260038695843
-0.05029093268614931	0.02506687800852753	-0.0891936659414726	0.06965175251914085
-0.0206704169614231	0.1443613832639457	-0.02714236883363575	0.06617142063535708
0.009314216149889925	0.1254295549220762	0.007821932344560618	0.01732156450589734
0.01211363484566347	0.2166180141183957	-0.0181287907110651	0.01252940572815435
-0.00699080470094118	0.07459672025008315	-0.003234637286865357	-0.001729841920337894
-0.01372073462402064	-0.08111604969294162	0.04749537049589907	-0.01981975269416777
-0.01119537574863077	-0.1015877856359457	0.03232847303637436	-0.01452548438335578
-0.005676774100424662	-0.05179256623489331	-0.06451928394840575	0.09260220306144268
-0.001036049469273653	0.02690864101639635	-0.1295898098666974	0.03998809548156854
0.02106606590613588	0.1079230739866792	-0.1273283416798384	-0.02968630762447198
0.0397204031678863	0.09851481542510232	-0.03581149483605461	-0.03379273822012553
0.03084665862967291	-0.02672264454344222	-0.006821605380488947	-0.03284346807266401
0.02909409439744138	-0.09249209238679029	-0.0374760112404758	-0.03393370464407625
0.06173123393473189	-0.1222248686968795	-0.03606688780067568	-0.03673109520342663
0.08203463263931193	-0.0729732593114486	-0.0206081126839803	0.06587147002907735
0.04880966861724956	-0.07915731081013427	0.06965183535813593	0.1124817541328459
0.02221811164012084	-0.06070247117599182	0.1449040226970542	0.03278312494620335
-0.0003552810207651595	-0.05363537323264574	0.1385935527961991	-0.01898902416679298
-0.03272955228462833	-0.1474866501293137	0.08520859901664997	-0.07385591248650673
-0.1192388950927802	-0.1002921915468021	0.05944261340016596	-0.1944301537990948
-0.1931241452214565	0.0303035218738157	0.02593699546224218	-0.2294782683640968
-0.1056533680512314	0.1408135672942427	0.03375860250019033	-0.1210142330761092
-0.0394698388001038	0.1644768728214086	0.06275989476608926	-0.01384117235494999
-0.05843234273259006	0.01358074559924548	-0.0252197496821308	0.05759255679696001
-0.04278359828251308	-0.05158751386950068	-0.06104533253354581	0.02983075203235877
-0.01214037624009371	0.01003271845806192	-0.05538381779156421	0.0280642100727251
0.00600110142530472	0.03815551191653036	-0.01267334649958823	0.05092111739027085
0.0221132451814883	0.1110880781635017	0.0573418534556609	0.05095480697123807
0.007082281498718797	0.1983679015716342	0.02423613986530365	0.0267900460588975
-0.005965647248069237	0.06126282216870323	-0.03568994566998739	-0.04385683995258283
0.01428176319410994	0.02246375960925748	-0.05646737658533475	-0.04881770118905984
0.04760570885417025	-0.02160452421190036	-0.002070076916235299	-0.01978200099505642
0.05034200283351926	-0.1157126359906913	0.02097501734746093	0.01129458873728357
0.03087142401708134	-0.1126111668430965	-0.003583899985365018	0.06564284022378955
0.02548581367670126	-0.07626497607436357	-0.06091113452723547	0.1273047599708424
0.02439789587317582	-0.01264425842868211	-0.127034447676735	0.131109891666591
0.02899560909224269	0.04757081002139468	-0.104610724644298	0.0859448043425191
0.04674499303102672	0.01931773060929439	-0.05389364786464086	0.02246309886499993
0.04248531924119631	-0.03919709643954127	-0.01471888991760296	-0.0430638908729997
0.02854257683378186	-0.03377793753092289	-0.04621189821536989	-0.0297319847663052
-0.008667118488979327	0.03699091161834032	-0.07250801288514939	-0.06758172515956118
-0.001147383354616222	0.01717822301487784	-0.03194413109315025	-0.08941740256922785
0.02498039001660082	-0.05940855590853366	0.04557359289755298	-0.04852047274172547
0.01561065285066667	-0.03412622963399661	0.06367258404715265	-0.0297881192331907
0.02070825380500862	0.01294040036767935	0.1166295868291802	-0.002289529057734003
0.0297173411082784	0.07737349899857128	0.1547293012136152	0.02978751428369646
0.03423993229546016	0.1362393229486013	0.0567603524606992	0.003484825977633504
0.02568395757110128	0.103372459609993	0.01135352266307665	0.01996709117629891
0.0135467701484145	0.04139931367103278	0.02763870591147547	0.03436864544119958
0.0003608564300118187	-0.01330325501046888	0.01720581089247929	0.01091896129613541
-0.0164278921971023	-0.01381314709629702	0.01787786854865513	0.02030855722515851
-0.008636890234984453	-0.0004989761085658436	-0.009806969657550393	0.007684664761077088
-0.01975087086726706	-0.02480416807620789	-0.08188430781949525	0.02105125152390511
-0.008658427238422327	-0.07732464973519509	-0.09494210340265254	0.028712788406552
-0.000268640724481196	-0.08108850647096215	-0.1082471962436476	0.02216872246059524
-0.0008155466810633287	-0.07505706897035584	-0.05620534298659707	0.006306416899408663
-0.002449663121179063	-0.07094189444197396	0.1094765292671521	0.02261062726779592
-0.03698571954329531	-0.04735775586341705	0.1506801715755	0.02215252134571193
-0.04434193618741229	-0.009203568446248967	0.0468800023783946	0.03526234268691406
-0.02717359434433743	-0.03747949178766912	-0.01501916670569945	0.09544018477758812
-0.01584022305346103	-0.03042099944383814	-0.03807769153096389	0.0933429946330379
-0.01509154765132823	-0.07792102610309791	-0.0713473162667199	-0.01426104764883475
0.002561860448777058	-0.07380215518939101	-0.07053330686375797	-0.07093823510793025
0.01332480128837027	-0.06505464785309178	-0.02588610587176824	-0.1326587136704045
0.01887228072611869	-0.04116695157352058	0.02623448136517537	-0.164779221500952
0.01705051705892171	0.04799563325997774	0.1101916076751547	-0.1227395879504618
0.009800723081087214	0.09381714523865307	0.1836288784197948	-0.001317726628472686
0.001837124155496131	0.06989565444664564	0.1156860713527441	0.2144501560060555
0.002292842472978114	0.07123700939438979	0.01528663238690397	0.07309244725250058
0.01134450179793024	0.05414115075308414	0.01448435913545412	0.003409572651081511
0.009487354499385097	0.01528858243040426	-0.02741991263648183	0.01487506224140274
0.02439964403082245	0.02138411108609952	-0.03201275924572296	0.025437190869187
0.03294737351224444	0.06444148548838047	-0.07714343731976468	0.02529195194053299
0.03092716142415919	0.008207008315087964	0.0394131734309873	-0.01256337458012685
0.02545096940902718	0.002722342534523191	0.02344679997413184	0.003154146401404636
0.01628334231066864	0.0001878057143162438	-0.01396799393244742	0.04704360173025508
0.005908125351845818	-0.02468130656909492	-0.03602757846924082	0.07638018529227965
0.005307479290631282	-0.03714790354990658	-0.05365776072537801	0.04235844903297267
-0.0006871974247116108	-0.05324213497971738	-0.1129047897607065	0.007033877988986507
-0.009813656923789629	-0.1201295294634283	-0.1740499965472854	-0.06279861756737096
-0.008593819737363907	-0.08795562601734146	-0.1156989573378026	-0.1142576992099456
-0.005292044445901272	-0.03323656499865048	-0.07822977294926535	-0.09962946850554229
0.01314909319644221	-0.01655798879660694	-0.05105251889605613	-0.05072858441473648
-0.01514624019184123	0.02528619807865593	0.08860251160767546	-0.01971280498452518
-0.03923956369026658	0.01776009259732585	0.07412583533471966	0.00170868001284826
-0.06375993397864775	-0.04059398217068329	0.1081113638229379	-0.002744641000761723
-0.06446331991558937	-0.04553218390509354	0.11375820779699	-0.01384968777338755
-0.02522649789123037	-0.008294987009913364	0.03890425685563429	-0.06487863435420535
-0.01751611990087201	0.01360191118077967	0.01258772834966545	-0.003833351686785875
-0.02253033022977394	0.07816553695020351	0.07615948326447705	0.03335672656508076
-0.02811560959164752	0.09284744277128566	0.1084766227171051	0.03917202718187375
-0.05860821074166876	0.09237840179498669	0.08640681750293255	0.008593569042884153
-0.02789414874504007	0.08902073096513667	0.03498873102211404	-0.01232316796941947
-0.01032330223051454	0.09685466996272701	0.02174426000138286	-0.08906598812302713
0.00725651944344892	0.105288127171439	-0.06975571095992161	-0.09372232794195177
0.0108085572349954	0.1817521799125263	-0.102531921589838	-0.08874441524776253
0.004792219052151075	0.1793482953765785	-0.1156998403272367	-0.0260814419227753
0.009486561445915266	0.1045049447771835	-0.1063680189206046	0.01622202520805424
0.02634660553321356	0.02100718872403963	-0.02353989526853584	0.03207169072423006
0.02155771903732857	0.004399648252492484	-0.01585586849899399	0.01224182291562841
0.01306603131146661	-0.02067748482330664	-0.01804346121342136	0.04475383722266309
0.004393704725844209	-0.03132984422976905	-0.05145173192747712	0.03893595646571929
0.003735869574633166	-0.06972914725068927	-0.03750443326863254	0.1209525923668173
-0.004210129954009922	-0.08292922142756692	0.0005489134946444828	0.1930893916909186
0.01914491173639484	-0.07201985858550147	0.02147680395548946	0.1969124935947509
0.01460600464200981	-0.07995490716372915	0.005254959557504365	0.1301857248381334
-0.01752449526512023	-0.1375215899996885	-0.04483595098054038	-0.0004503314216340107
0.000324557891944272	-0.0579630080154743	-0.1056100215364248	-0.2125092316095951
0.02424961555931423	-0.03354940122776112	-0.1318615728599791	-0.2983184908754755
0.01864338559443211	0.01278979153327484	-0.1389809491431489	-0.302677288969187
-0.004302399772432842	0.01999770172539357	-0.09339787639072883	-0.1708675947659626
0.00601899089858536	-0.09900285463816533	-0.05290392626767244	-0.09542374033726543
-0.01216334545668585	-0.06558444640986096	0.03666542966780283	-0.01681027227314824
-0.04688343438007175	0.06728608012313197	0.2643114244500513	0.03847111139445131
-0.05753072509250887	-0.01898170629854815	0.2794391659539004	0.1055996513607243
-0.03945764169939407	-0.001061150892512614	0.1846134136477872	0.09972917379588826
-0.0208747266555197	-0.03750410423715016	0.06841374048369307	0.0706931287665723
-0.02970384174469539	-0.0549463396177932	-0.1024382674862276	0.06174170997016813
-0.01904437545753439	-0.05643157815187773	-0.1372234628102998	0.07150413148870116
-0.01477649462392692	-0.05615786876869665	-0.08725610838327522	0.03206236558249585
0.01212829674824623	0.0006303205569809942	-0.007311050723136708	-0.0278853302362442
0.02012410869046402	0.02084253267355964	0.1018038205401686	-0.03620769778921141
0.02596339870540295	0.01172247516964298	0.04253235581568356	-0.02429882172173935
0.03849044514347243	-0.00542011713602116	-0.01679504533572139	-0.02198508243412971
0.04555163853662798	-0.02473496186289079	0.003153826087306055	-0.009538640767694229
0.01904278580276541	-0.03448061376748272	0.01013439505863611	0.01231018299234046
0.01508131323292221	-0.0448798151375361	-0.002625069335405583	0.1068259807504959
0.0143561822103868	-0.008495535808442431	-0.03463680807572547	0.04679025889275672
-0.02961846134845313	0.04009047375779866	-0.01244484911948376	0.01994185988537223
-0.004884500078129962	0.0652462779147155	0.001076956194106239	0.07412798907219201
0.008671656677500859	0.02896811075246939	-0.007748755752280854	0.1223557381330654
0.008377887031979035	-0.01689043484197927	-0.01341867536137848	0.09459749319696034
0.01555314818839076	-0.03401937277721898	0.03880950994358233	0.08768177727329168
0.03301305449352091	0.02955799518279264	0.0229042530670964	0.06618573278567803
0.03870124443681122	0.1608630135155705	0.09846069762149162	0.05661957271295046
0.05393907445147113	0.1980569254561224	0.08272243458909234	0.09257284231903055
0.03825500743044938	0.08408140789783737	0.1196413972689812	-0.005848376496222195
0.02124396457269379	0.02066504897619389	0.07719684863671769	-0.1462993308487824
0.05245555222294473	0.00228134790464723	0.07223000105070691	-0.1264474312844101
0.05736628298923452	-0.02382297633770625	0.006545059207556098	-0.09100597793363471
0.0466230593361484	-0.02934560603233642	-0.05229603921259876	-0.04897227022205721
0.04303400170935302	0.02987593589376478	-0.06396609947465991	-0.01281154793470864
0.03863688358952962	0.06664684155077098	-0.09022091808030033	0.02612283398075149
0.008788992039004691	0.04257724126775653	-0.04978809271375931	0.05413879368526685
-0.01166299569841797	0.02669333245164993	-0.00235259918579341	-0.004646187637028027
0.001328482004038504	-0.0128315372546634	0.05746390760265263	-0.03521334794268621
0.0005717273628554628	-0.01840706214533323	0.03956240675963795	-0.04595207202437482
-0.07764629610269271	-0.01699080156261327	0.01199559213092432	-0.06062119817072739
-0.08795899355958248	-0.01327594598889221	0.006105778280276862	-0.02845716351613072
-0.02827065655276965	-0.06629757927879594	-0.03442138967044038	0.03229647964035844
-0.02361842115937156	-0.1315634479973497	-0.05877229564122491	0.04155275204081181
-0.05071895521834045	-0.1261420250913565	-0.01438106114197869	0.002971292512512313
-0.06101820371278192	-0.05600038787479272	0.01077865994236473	-0.005677626856578836
-0.04127737180880768	-0.03540905283797065	-0.005077308139673731	0.03788083706040811
-0.06894797101594476	-0.05926918822974604	-0.02473109495514015	0.07615681344711547
-0.03268947653852877	-0.06792370455605183	-0.02831684519473429	0.08293017381872846
-0.006844804582467869	-0.1209414915205642	-0.03000055580680225	0.05249680691778926
0.002079529297312353	-0.09477510571739599	-0.02402478110738123	0.005250664543089129
0.008170869243453163	-0.02021158476031801	0.006465472056690998	-0.0778150230882125
0.004562321556580953	0.01440421678845251	0.03310675726218006	-0.1291639678351953
0.005159128830649384	0.02987661564272389	-0.01558371678359662	-0.1001591628066517
0.01504988480618694	0.1549864457115594	-0.1173323586009273	-0.05226370886694067
0.003158390894354153	0.07932188305681956	-0.09286578718071095	-0.008500636908376324
-0.02231919888336057	-0.01508368552421673	0.02241726985053874	0.02492440134258318
0.004977292480345448	0.01193388635781455	0.07183564455958616	0.03147896645938236
0.01313611646979586	0.02674111423021037	-0.0467583281973438	0.03492443494737373
0.001682983405237068	0.02897157776147234	-0.169617781723073	0.005352466940756295
0.005949637671181692	0.044462900164602	-0.1964019235887184	-0.04805237603649526
0.01404481248620457	0.0006082294082617381	-0.0475835657343056	-0.08505231071935267
0.01924174974184862	-0.0388111044238937	0.05098663100688788	-0.08923232391423414
0.01801173343048625	-0.02651638855344284	0.08062840287042096	-0.02945366316885911
-0.006651489792228454	-0.002202750636052337	0.08198734566637712	0.03488491962770174
-0.007826142051689137	-0.02409980845675971	0.1066542923345906	0.07311354769425356
0.01922759670146077	-0.01408710492250322	0.1541990391473625	0.09317273563865784
0.02000303329458749	-0.01360795779539041	0.1378362384298891	0.09281434915222671
0.02730730767572288	0.1611543516091552	0.08852560684016024	0.05136579138436356
0.04179312076875497	0.0614071846818148	0.02511949659886883	-0.03170992257852409
0.03884158348409297	0.02371569370983241	-0.005501557194729163	-0.08494932025672709
0.03084530572291083	0.03079670204538366	-0.001612547359737735	-0.08427904120840693
0.02819142944098573	0.0341799977547175	-0.08969922424990136	-0.09408454023914209
0.019216504697241	0.06248167756847819	-0.1076041070997967	-0.04946554745245078
0.01151503375284048	0.04389232750876522	-0.1120808779137211	0.04029810768328407
-0.02103510634354184	0.04032007855561522	-0.1493424148189848	0.0840245422627995
-0.03102852190012348	0.02069015923012555	0.02917054253457098	0.1740107295640074
-0.01655441723545083	0.01395046335198211	0.05655841363588573	0.1852364500788737
-0.04080091657491351	-0.03495508727248761	-0.05702074196407823	0.1037360210366465
-0.03973084501954999	-0.05017925577861877	-0.01821297967277525	-0.06365893392954033
-0.03250918509603237	-0.1176649992210686	0.08289088332693265	-0.189825368114355
-0.01623730698219884	-0.08603830156014079	0.06841066763927597	-0.1590423902317828
0.002127814395533469	-0.05437105334405756	0.1096322452881121	-0.1529877418524959
-0.0114153365876603	0.001140937572104028	0.1489076018949754	-0.1001700612554829
-0.01200597486446094	0.009450137376271664	0.07890805221943656	-0.04136019954086488
-0.002975365544795181	0.02068532343052839	0.04386394246747247	-0.05833575844011302
0.01492284408982085	0.02279507833118133	0.02921905489604282	-0.06749552372422955
0.02369202637958442	0.02386074215132271	-0.007415675433839891	-0.04785778062964043
0.01754172295846798	-0.01322237519543005	0.0003729399260502536	-0.02134299534831246
-0.01399476521289448	-0.04112169503536358	0.01037610265937121	0.02324823715139145
-0.03405078846754704	-0.06345540547072528	-0.01913964152794454	0.07041190679874137
-0.008608937837251198	-0.02030601694372631	-0.05077903957271187	0.0299779982413195
0.01428706251692258	0.02858294074242172	-0.06462228557960022	0.03323481872625545
0.01280427129548553	0.04702981954169108	-0.04994058883620953	0.05515992709458312
0.01581647768783076	0.0580405197180491	-0.01617010469023695	0.08695054680700863
0.03756698696494013	0.09821619200955324	-0.001207225050966125	0.06333573944634199
0.03369052787602615	0.02369345442011014	0.01327432085465337	0.02621462015013621
0.01391979670044657	-0.05446081432817472	0.02578357059565348	0.01926526353856975
0.008826177546840093	-0.08739154283911216	0.002779550161696636	0.0235747068002747
0.01841542828828381	-0.06180432605856812	-0.04710734834018303	0.02867583612198092
0.004676479402898066	0.06991398873164452	-0.1215644669169828	0.02020593254673684
0.002548886458566768	0.164703411116253	-0.1284661132983597	0.02166561699590958
0.01734048736244006	-0.002986503295928766	-0.092939472358278	0.05266227116379856
-0.006850382560161735	-0.04098151136253466	-0.05448273052785529	0.04630832724719253
-0.02495743438482654	-0.09111627135865814	-0.01862722649463631	0.02100951024301768
-0.02094830656315178	-0.06211311739865027	0.01692537696178952	-0.006409667527380323
-0.04612683983587523	0.03409635389085748	-0.04233383822425627	-0.04405161295450838
-0.03444328364105297	0.06456106266137508	0.08001272470539045	-0.02641061753677632
-0.0103903525303294	0.0679570850968247	0.06839382558308826	0.02978001957519583
-0.00214400439375039	0.05319128808929561	0.01142398440626486	0.07547361487239831
-0.07174836556313455	-0.0587124579479686	-0.02497146743145566	0.1281935389717073
-0.1636326798243936	-0.08081537994715624	0.04014471081685361	0.08120597555137239
-0.09624893318481148	-0.04822725636564577	0.06919222193723477	0.02734246177542264
-0.008259317090129418	0.01108758673403924	-0.01620140383631349	-0.00863904031736093
0.009005129880071188	0.07613566487629703	-0.0503537010969721	-0.01729537648897044
0.0143771977018952	0.06418708306093218	-0.0286511862365409	-0.02747552182139735
0.01523591483450779	0.03132612097601377	-0.02682539601870359	-0.02603256923297446
0.01345531861144977	-0.002985020988328404	0.02084809127266865	-0.02663131404008411
0.01247870991093492	-0.05468440166086195	0.05601656595885054	-0.001914195617174142
0.006012804307662613	-0.1517913862748788	-0.006111139576511367	0.03188397847781515
0.01274824574323687	-0.1355675387096484	-0.0746449977381653	0.004737995296858822
0.01023777387596628	-0.06336384934403776	-0.03152883111674677	0.02867516880557709
0.01307102543780097	-0.009497136132058721	0.07671048845519317	0.07472870172029804
0.02225865129043276	0.08915582323513674	0.155351486099179	0.03973379738391505
0.02999500098279945	0.161203767062544	0.01916245797650695	-0.04748659964324815
0.04988853325760215	0.06854053067325523	-0.06573851714345877	-0.1148434560464037
0.06730188249616312	0.03569234935339014	-0.05858303025656496	-0.1697283763746026
0.06549336739944218	0.008412461907986755	-0.005975139659049299	-0.163627599005927
0.02762468369430868	-0.03053462478097915	0.06504174634608126	-0.1374731184339642
0.01758785341425005	-0.04073650618432867	0.05526716922131902	-0.05129628033423687
0.01676720469403389	-0.01661350572128226	0.03254089999405102	0.01813065977605697
-0.01021274667476689	-0.007055291513833687	0.03546451352410538	0.03984345002631543
-0.03576335311332486	-0.01659127599895625	-0.02361466063665741	0.09269254269574004
-0.01933469556616999	-0.01487491588444253	-0.04322047577794515	0.1078687697924742
0.0101295098048695	-0.03298851418921384	-0.06038723707452417	0.09683131812925154
0.01421840597479097	-0.05423127929876578	-0.07798864680054346	-0.03749388779231128
0.01607576115411946	-0.05811167330854226	-0.01504558714594	-0.09955249854515716
0.01825123974769902	-0.05791004054035517	0.04540343251034627	-0.1204817395272795
0.02137438292560828	-0.05569053174975069	0.05299080689021196	-0.05699555704727649
0.02420874901419772	-0.0318139110811576	0.09255938422184005	0.03994118975932118
0.01551315275405997	-0.01576922392161533	0.1289782899725021	0.1251025940224032
-0.004069522413152189	-0.06102535698933355	0.04751373194853022	0.07223417560259789
0.00195637332551385	-0.05588260592830401	0.008463055076280404	0.006187023342280016
-0.002305032875746019	0.02122828099888147	0.007992597868111	-0.06933614333732685
-0.00305219883550042	0.06089126345895418	0.04308929013510922	-0.07402132859105999
-0.00284922598956766	0.05232065030530945	0.1433266493447885	-0.04140112513093248
0.005947111342511105	0.1022861241307506	-0.01370629761898092	-0.01047818820568067
0.01198659202149306	0.06181055559274387	-0.07397571365503652	-0.001239616616463814
0.007345224209611029	0.001410737909843271	0.0124011922744256	-0.04540135718640346
0.007885121715807495	-0.01653063661309302	-0.01814806457747023	-0.08924519937199882
0.004234772534835334	-0.0001948434973005602	-0.06171229460396817	-0.06856289501687558
0.01041900970467853	0.03563283596232391	-0.08771908745517865	-0.0402144574681448
-0.003072018888456167	0.03665001115892458	-0.06790848038116153	0.006644343456688065
-0.01136235393496241	0.0159884665028476	-0.07789599161233107	0.01285355960376899
0.0003160164482802572	0.01922908339453444	-0.05508089950420793	0.002462682885778195
0.01832895045240168	0.02956392155570321	0.01558459384604265	-0.01640547685397126
0.009935488104450279	0.009281504695336727	0.02718788550784186	0.007729713179079074
0.001755749782196627	-0.005410819631252737	0.03265288767083429	0.08037529845945221
-0.001907134294139878	-0.03373928384926263	0.0506998457002814	0.065991396110227
0.006764756881738392	-0.06271330252708023	-0.04224892053857107	0.06299390880561473
0.005030421236429927	-0.1621499601383579	-0.1034795343614456	0.05834298999892466
0.01201555681869824	-0.07686465696458479	-0.09268725817986387	0.0533252547615913
0.007101730593707106	0.03563488601276445	-0.09709948685829346	0.0409380724205323
-0.01628556783707622	0.1482061036206741	-0.02399064740621635	0.03967305202983257
-0.01334336434407558	0.2572646103919838	0.07003100065083026	0.04685139952130703
-0.03061586512470802	0.2203465973229991	0.02643090034931183	0.04785487429164129
-0.05163764528868073	0.1073869342567625	0.05705439869990558	0.03643637146039497
-0.05658601121575763	0.0694248873686185	0.03606107215649072	-0.007746968858031292
-0.07633938605388901	0.04809375496627809	0.01548112953299881	-0.0110484739483914
-0.04408667501583157	0.01105901231629417	0.01711246941531172	-0.0103463414369531
-0.01646605226490045	-0.0307964466804117	0.0202939808745359	0.01506271704026065
-0.006948475452698068	-0.03219628236881523	-0.00834756507868311	0.01713690876330601
0.02680789507559998	-0.04858831962529479	-0.0838702070637305	-0.002763955177994037
0.02921593855533688	-0.06403836799241969	-0.1270321069249684	0.004485235083072693
0.02372707318248329	-0.08909738491498574	-0.1248551535453959	-0.002635612802933306
0.03191700594672949	-0.08180206750235176	-0.1629085992626306	-0.03380027625579501
0.02639786935996761	-0.05765429294101758	0.02333231503099556	-0.001255188348283877
0.005085804113624054	-0.03987305403529874	0.1791798669898292	0.01587441379186696
-0.03908476802206477	-0.04519459234312989	0.05369330159260289	0.009117891761423455
-0.04558658645178893	-0.03574787323910135	0.02409283017440552	-0.007462434503043483
-0.03375795432863805	-0.05011784880157959	0.03656758520008649	0.01425852981897387
-0.05533478911894627	-0.07263495366667565	0.03524894098360477	-0.001793140582170469
-0.1083853048188552	-0.099760084658734	0.1340885281585788	-0.02590385568695974
-0.05494181522387319	-0.1294709660288297	0.1207947369971541	-0.06196277506954486
-0.01590361264617454	-0.1642413125060232	0.1011954384941714	-0.06684468521812463
0.0007241046849647214	-0.2064445863350918	0.0804693586276318	-0.04906513227518499
0.01599534141216031	-0.1199806610909411	0.04235681145044511	0.01934057473425706
-0.006255527163767681	0.02074280556473247	-0.01367162582110786	0.06162516775826503
0.008674920776383176	0.220457335892761	-0.003850619331056653	0.1298803108182846
0.01741949909901034	0.3469255077625108	-0.007065598244977545	0.149004281675523
0.01379251225471811	0.2721097563189185	-0.03313566673291349	0.1155350657723601
0.01161040539968013	0.1001849937401081	-0.02442335354131669	0.03472958350458556
0.02647549872357279	0.01713182389801144	-0.006265962306483948	0.02582888619515398
0.02752520795539467	0.0002581258599204695	-0.05053902056490156	0.04426202376982865
0.02254716001301462	-0.02475932977884729	-0.08967547927434759	0.01325873317715104
0.04972875547975005	-0.01629351202624143	-0.08258811038551808	-0.0008941454873859791
0.04651358306828455	-0.04733985728508561	-0.01929157585070501	-0.01741016386865644
0.04563385544477244	-0.03039279071682328	-0.00467930525855418	-0.0006896451455408586
0.04124414080789082	-0.02429785827429164	0.03671552331676198	-0.06789474425249659
0.03699908558915283	-0.02656959197673369	0.05962829651577182	-0.065699851665589
0.02677453931784444	-0.03866864965167781	0.06177087589018591	-0.02225462515058577
0.02879884907317268	0.04376016805880543	0.01365621735283387	-0.02035437903825638
0.03477530662343644	0.02337525753804133	0.02395854886640696	-0.117309576416386
0.04121737784585668	-0.04261653543810992	0.0176653604043728	-0.1472981699392466
0.02360077133205565	-0.07125493800264127	-0.005903404826490355	-0.1780338029312596
0.01029990778777413	-0.07946868283394315	-0.04216929653296927	-0.1799660092508627
0.0009080702782364999	-0.121979509293017	-0.03327381734260471	-0.1278409699162918
0.01317565457781027	-0.05346933434607056	-0.04265593525604318	-0.09704300980685929
0.02620750733041543	0.1285256598547068	0.001758307432361481	-0.05420650026071733
0.0123576752932472	0.1995555526350125	-0.01720136709143486	-0.01869190048310887
-0.01522248567999931	0.1745847251069275	-0.04055900281269472	-0.01023867761822352
-0.03136607068631153	0.08786029686934377	-0.1258635698304976	-0.03193768339146444
-0.02600354775660975	0.02371702459919627	-0.06786072371072388	-0.02024594023533498
-0.01685743879727496	0.008324951313274103	-0.0455147323537894	0.03557238010455918
-0.00351279793682901	0.01186096276785545	-0.02568792455820544	0.03532010639482654
-0.01438325894425364	-0.004478569465646747	-0.002908211841534131	0.01477800800631631
-0.02926517860721147	-0.01278414649066176	0.02237894527315736	0.02223998854665481
-0.01340060153159782	-0.006950587951783356	-0.01810747317517857	0.0442287775006505
-0.0007220570448544877	-0.01040995998393045	-0.01603277380279153	-0.01565627286700092
-0.01690366325580708	-0.01311732269463601	-0.0771987159725866	-0.01238542437483498
-0.04194827147646373	-0.01412167958384122	-0.08351340227531312	-0.0002970724012977322
-0.05599083750775061	-0.03145377440240255	0.03475421471001516	0.03121666055877077
-0.05058698835757793	-0.05790024826957299	0.0911993063936096	0.1332676969595405
-0.05428316613451137	-0.1131249091545947	0.1283727231452554	0.1245156967150113
-0.06161629133230027	-0.1104226174797898	0.1235193130993015	0.05288164843542608
-0.01924411124547561	-0.0599111125651545	0.001489177079376833	0.01774344208507826
0.02322994922479527	0.02110638940669607	-0.07826830883184811	0.009699182921873467
0.0268134717692295	0.0532600103291854	-0.04231180067346971	0.01672543488338571
0.03300387780236194	0.01306345325966755	0.007018630193632703	0.06763943120329743
0.03564310627655381	-0.04173000499517295	0.1101547367361715	0.06903458029868496
0.05146655744337456	-0.04850574847213307	0.1262087357030218	0.0852800356064814
0.04433522068346159	-0.01752918545428076	0.006001868477456239	0.04092091755052103
0.04402407278274066	0.03186365055555145	-0.09033639219220846	0.01649186406811647
0.03717996701875428	0.05504683596143319	-0.08678497831609247	-0.01092890491365723
-0.01848522573563739	0.01347645355874535	-0.04517767407021575	-0.03980095859788868
-0.06462271472362237	-0.05859750503143868	0.07685220135514248	-0.04136888386004666
-0.04295585700088359	0.0007947969829227171	0.1543221163100879	0.03400290179173754
0.0143715617131195	0.08652275352082585	0.1289176779957153	0.04238983080128094
0.0293268787552758	0.01934777136460789	0.1479248721596101	0.03570788191988351
0.00927857213768658	-0.00356688897416038	0.09879532326797828	0.001058258456512495
-0.0303368953049773	-0.01018796138022485	-0.01070357742434042	-0.005333419679787611
-0.0305997287030423	-0.02106586963778857	-0.05594682243215703	-0.00939065444583294
-0.03253312967810985	-0.02115880857914084	-0.02521507732724704	0.002391704074611685
-0.02637540528213112	-0.00989242646593653	0.004358725172924462	0.07179273811663367
-0.02612063115395747	0.003295454589269003	-0.03204055677326482	0.04302459836726382
-0.05319165576132076	-0.03002366091653339	-0.1207305279670361	-0.02737933197372985
-0.007094690434169243	-0.06390671097182028	-0.1267826238634018	0.001044351754068005
0.01648683176665737	-0.06891809534955841	-0.07206481711711972	0.0652488014253762
0.02696454781503714	-0.08972309090262739	0.01553220095570589	0.09504685156629493
0.02829154242864608	-0.14562385634126	0.02289040521510523	0.04096907300437481
0.02229367545439614	-0.1043692337567021	-0.02240278725393362	0.02803452506473501
0.009226457773802352	-0.1259526164499292	-0.06015242615755325	-0.001066681919246316
0.02151120445766775	-0.02026323459417245	-0.08696322724628826	-0.07730571461392832
0.03384522884140143	0.165454889203304	-0.07434159628568966	-0.1092242967506755
0.0161694768791192	0.2832288191318895	-0.01017522202134712	-0.1010860615203646
0.01570489562148894	0.2953345040774821	0.04435121339532459	-0.07393632411355575
0.01643538099871693	0.1385190856456476	0.06132214812418288	-0.01205491125707804
0.009184421117398804	0.08131373820902736	0.05540549267941833	0.02412789208621342
0.009729966026192747	0.08231011630250183	0.01335006418513411	0.03952432247367287
0.007220994491782081	0.03191880854315239	-0.05546074924437394	0.02232935858028988
-6.489989364627307e-05	-0.02628458551404059	-0.07085183931629001	0.01514223704805554
0.008277552408271988	-0.02754677159806177	-0.04507471164809757	-0.02310558907960038
0.02118199821883692	-0.03355635734925009	-0.05976045669160464	-0.006987505009051711
0.01594470926507138	-0.138762203468645	0.0544278292853491	8.992242940763628e-05
0.008051378044685444	-0.1484225721745581	0.1119094732013183	0.01866470872275717
-0.001886155378501372	-0.1264350945490074	0.02591409403426709	-0.01024001955287699
-0.003094796083441786	-0.07446645420750532	-0.03388897365068966	-0.07286027380241437
-0.006567092935461983	0.02415991459219215	-0.1015347593855331	-0.06201258706418324
0.003202272878819908	0.1916953490620868	-0.112994157664753	-0.1041367579338647
0.004060036283510852	0.1032579367222335	-0.1281726307280283	-0.08107628949849262
0.006151855024393229	0.06295826623377776	-0.07946941390835416	-0.04724350493947328
-0.009006154252343111	0.03802907565133108	0.08103987026221982	-0.06164444474361867
-0.006931474891847039	0.01599762548758052	0.1208665493608721	0.0009931269797216371
-0.005332811659736729	0.005553236832792756	0.199596689676287	0.03911450420137255
-0.01745155325110112	0.00760794959980857	0.1936974308360984	0.08930417738642021
-0.007851178829608842	0.02861517840363983	0.09647615696937553	0.08651851276188445
-0.01242426126548045	0.01746020814873542	0.1521380882033701	-0.007815688596131253
-0.004889288566437493	-0.04881193403125024	0.08416819792138543	-0.05187518987288342
0.003587148342141854	-0.0630700671561923	-0.004031729183189913	-0.075120248527282
0.03936875129388922	-0.06102663133129956	-0.04986141801882517	-0.07352567968752945
0.03281238518998562	-0.053662054811688	-0.06943473005725634	-0.04084387897463133
0.02474064334338177	-0.1347295680882031	0.03536847902502532	-0.02451531886939816
0.0118404519722124	-0.1316800703188711	-0.01089772939955205	-0.0005393882352425689
-0.008872556995898496	-0.08946275878865667	0.006080417974120228	0.03274898349182391
-0.007714221493217665	-0.03964168370491612	-0.003726894637297013	0.05854200413656931
9.562051152775823e-05	0.04795279054060272	-0.06272015624295446	0.1172220880340875
0.0124744938897734	0.2118860029602993	-0.07759766664668588	0.1259889951323276
-0.03549173217455117	0.1864094839480129	-0.05801307474110164	0.04299008686129305
-0.03329097240341308	0.1246047328508822	0.003888709059933715	0.02859107111898741
-0.01190882156882175	0.01882813213450589	0.03095074738153739	-0.04442590095645686
-0.005504380070768961	-0.05504777959466584	-0.0139013439286711	-0.08058760513052625
-0.01923730695170639	-0.05935925240878304	-0.032702177214546	-0.04448203668658772
-0.02052171265636135	-0.0507916247608563	-0.01830886432615595	0.03137162014463681
-0.04437587140576352	0.001447677792732005	-0.04895169937367432	0.06081944867247278
-0.06126527040964685	-0.02769542569675387	0.006601732367214235	0.09633227391094822
-0.07327200846078082	-0.03806982018024131	0.07147033163099334	0.06517679582230275
-0.02912090786468299	-0.01680961222012387	0.01276744997449093	-0.04080701754574582
-0.002293591314854972	-0.001067689329629936	-0.02687268633688589	-0.09048604921361197
0.01855871462791073	-0.04222588746842194	-0.04417053977910244	-0.05627492220754961
0.03683183873845366	-0.04579640962752812	-0.1610431606411412	0.005631313768300861
0.03240382995393758	-0.03240540149899036	-0.1020612895245892	0.02309428897826049
0.03865949607783997	0.01138584113501649	-0.02164439666574585	0.03841224010817198
0.02482843635860308	0.03951107184760196	0.001540848177708634	0.05791457355040699
-0.02261167354379274	-0.009405148461890962	0.01334111206670122	0.05153841629053565
-0.01148350465083333	-0.03961226331639419	-0.02248599814747959	0.009460918468626558
0.005888093627450845	-0.01835790196627755	-0.01855241609764373	-0.051179967918527
-0.006039231814751542	0.01825224907481038	0.01084200712882528	-0.07879320346678853
-0.03221465798714475	0.05203156016513358	-0.0205813867184407	-0.1024878171143505
-0.07239851649197583	0.06165708592825112	-0.0709778030626798	-0.07301916145166182
-0.05045396365785858	-0.05297415915061199	-0.08071716559990183	-0.0718375913682912
-0.01806008798654462	-0.09686661060790432	-0.07900685061426224	-0.03788471224893332
-0.0001733196273710664	-0.05926443403973316	0.004589325308129282	-0.01953157664112516
0.0182098065766301	-0.01591137518742004	0.1197777657677066	-0.02595321663196998
0.01506567511105002	0.08800474282222037	0.07398055129365984	-0.02697431090649978
0.01695980009475659	0.07386881978268775	-0.01377450127428003	-0.02227873404391241
0.02999353966425056	0.02387343634314891	-0.05086699500977336	-0.006146384315298539
0.02597951139581278	0.001962609626411323	-0.02399753465460634	0.01317604905589885
0.01996829532638562	0.03644426324695298	0.08493832639363387	0.02958621635708268
0.01493930881791712	0.04081493187848678	0.08733376357817903	0.04959424608403789
0.01243405828923709	0.02963211573175507	0.07179832113744054	0.1270906664251919
-0.01003950214616973	0.0816150006101235	0.0564204127128955	0.05448061618134864
-0.059029828843641	0.03121570082974047	0.08244810921975466	0.002358669472802644
-0.03701035467374985	-0.01197176364089982	0.04530209308640618	0.007715367587806918
-0.009839486482963601	-0.03374811620207224	0.02872005621431129	-0.004803846258211968
-0.002406214637735252	-0.04139477347263428	-0.09003343258205385	0.01270912029368762
0.01802399146699778	-0.008573599461204843	-0.02791355294332331	0.05219479557736398
0.03122092914754526	0.0173021750998778	-0.03108805564286946	0.04344749989411317
0.02789721879771685	0.04536869063253364	-0.03349824505003472	0.0456216517543288
0.03597165155131673	0.05756106422110189	0.1168742031637628	0.02061859074710726
0.05096200256943393	0.01359736270112678	0.0711133065229248	-0.03608667747036667
0.06111098200675148	-0.06970089842441274	0.008320120192368913	-0.05703134294671881
0.04642074527731116	-0.07167772806785923	0.04476076084120994	-0.05374809625247116
0.03459870173658495	-0.04655849341868543	0.04585527140521312	-0.03330297724407546
0.0418691201180488	-0.02788177294576665	0.002247968739183692	-0.002890473307158534
0.03525585710407757	-0.009538728470312334	-0.03173916592426369	0.1046077259719613
0.018114291133157	0.06094276702994513	0.01805134313116516	0.06376538541991507
0.008576540191063185	0.02692983387117921	0.1086895138092494	-0.01022716816352928
0.006022792265844623	0.008102929962737813	0.0903508078934149	-0.0507407704512581
0.01130026420556495	-0.2258640530875935	0.04451855280923511	-0.04335991643086865
0.007969656561255738	-0.1964750173201645	-0.002316044062854024	-0.004494699793323946
-0.002913777456467241	-0.08518261709277075	-0.02016152267767982	0.03543058740040735
0.006947013215033261	0.1033628066634822	-0.01132914102575717	0.08680733815958455
-0.005983681826434589	0.2162509164442944	-0.003369666020023999	0.12428636131868
-0.03506354022621579	0.150902144912436	0.002063006936776056	0.08853397313497734
-0.02990903967256794	0.09280608690213328	-0.01069555450078755	-0.008331770112970928
-0.01700078349795508	0.01212184987114419	-0.05295274468755651	-0.05615157160814246
-0.01694317919414442	-0.05922534588181831	-0.07317620008939259	-0.085994004520257
