-0.03840455345211782	0.00616087698907109	-0.03932683119165942	0.03351901720995036
-0.01156977906667036	0.02178499871684556	-0.0600043056588097	0.01110629087870238
0.0156138549494415	0.0109368787041035	-0.04308562110148934	0.0149767211704209
0.02845695297612911	0.006226801750801209	-0.01326681324232859	0.003236845859209415
0.02966885322786251	-0.02997661448841225	-0.003538985381847552	-0.01121016116672128
0.02264611055752894	-0.04094526987464678	0.02618730811359407	-0.0305139114146064
0.002528014343854357	-0.03946952708077125	0.006429958526923395	-0.03783770027345022
0.01487549781131342	-0.03563238819977989	0.003897143955290693	-0.02292006304296065
0.0137757548069366	-0.01662553857536204	0.0004197454286033717	0.02530696352403337
-0.004519116091190532	0.0585840241458613	-0.02013639023976301	0.06506999319571553
0.01054711118860797	0.07822023820635066	-0.02088752881980802	0.07826481117954712
0.03529581580942345	0.06866341561578568	-0.01694554837734446	0.06605545107564907
0.0156936142584189	0.01249398067532784	-0.008492952684367601	0.02713336105773663
-0.009398791852145028	0.009571248585060697	-0.01417612187737071	-0.02600140611863397
-0.03709983813264079	-0.009695408538872071	-0.01676704436465676	-0.0429747642077558
-0.02162569501151079	-0.006725902420513434	-0.01826575924711143	-0.01235825003704527
-0.03191386277370494	0.005445029140677675	0.005088820880534301	0.008899502749909043
-0.05923253251864283	0.04080567980228505	-0.007447839091823346	0.05076334524403213
-0.02887100818512004	0.04499999262464253	-0.01185015882348827	-0.0003895797125545331
-0.01134583810246127	0.006660504610779838	-0.00127819703516835	0.01281431533653176
-0.01178178687167605	-0.01230719432255874	-0.01119213565204813	0.03022074395769205
-0.004128888241715971	-0.01421107389257216	-0.002265498869175439	0.005196484041282735
-0.0104124401905787	-0.006816330315985043	0.02517381265373879	0.03494374594289529
0.02725738104777545	0.01584588906072792	0.02120388917676397	0.01578926582416007
0.04050663605769012	0.05482056715429116	0.008720788935622812	-0.01425029899575418
0.0413046135460642	0.06090722693721217	-0.01473483742688916	-0.04492244390176955
0.0212550028751295	0.02088497102256165	-0.0108669091576837	-0.02381711814117006
0.01068346325077253	0.009581108926200782	-0.001775921018989013	-0.03058790771102239
0.003311895407484381	-0.002291324271547357	0.00423131962055288	0.01559286407677989
0.004553708276940924	-0.01788880394527002	-0.003033784620645636	0.06572986477094406
-0.004362037090477958	-0.02793936682315226	0.003765179061628102	0.01209695116089084
-0.001166313531730656	-0.03638906872924936	-0.02136839462499826	-0.04522017163230283
-0.005439007841351973	-0.03754362469276362	-0.0198364874112702	-0.05028325742597051
-0.005783939466777171	-0.03112154392014662	-0.02193114184708606	-0.04764220325945637
0.02149335804762381	-0.02252160333320805	-0.02190683303307225	-0.06454643632667324
0.03213592909843884	0.009390736747580838	0.03782816749812039	-0.005448471008143992
0.04567332519268801	0.02803775243089389	0.1048332595936675	-0.005333889175803196
0.04554233344109406	0.03513881267619293	0.06740988742627754	0.04498067951454619
0.02985255177949791	0.03997031121244837	0.02990441848373986	0.09346992899561216
0.003713510470424466	0.003778590326810395	-0.00997525906471773	0.04982176375473316
0.007902376404239896	-0.007644448689480565	-0.03005846720385156	-0.01561182107235231
-0.0001190626887925204	-0.02850116585854751	-0.02119607047732463	-0.09818951596047214
-0.005554413952261031	-0.03712435810255801	-0.01744088853764017	-0.184921175738918
-0.01665580505484675	-0.03121301446006664	0.01208068471542398	-0.2137606101365057
-0.01559355552383793	-0.02259585929727267	0.01006808947108306	-0.1420126328640531
-0.006560988249056636	-0.01289185291642494	0.0003936167087904175	-0.09700099250965501
-0.004393669769562819	-1.901755594125665e-05	-0.006425425031430402	-0.04406977575398981
-0.0008566279722019989	0.007803343912529061	-0.001324544564613823	-0.0103500388584449
0.005609473514820544	0.02327315328361794	-0.009735470161324535	-0.04232496609788317
-0.00364096498992636	-0.005476709059751911	-0.01789401002937819	-0.05418709409565647
-0.00812258681299916	-0.01646560190465216	-0.0152243729794243	-0.04460187226386766
-0.02504585422902529	-0.006105644443388311	-0.02768483537535804	-0.04931481242836108
-0.01115410971616777	0.01913422657998815	-0.03232742540501939	-0.02989227127628548
0.01223634511930688	0.05306821495637055	-0.001361276669559572	0.06743572318717247
0.02708897412135589	0.06513814538992435	0.02742071762213188	0.1430848180359687
0.02674909277208392	0.05016330937456565	0.02940605305448303	0.04814940353787767
0.04207306490068295	0.01028733131608345	0.03109479124500733	0.01832872997938784
0.03330081353017665	-0.003100217776405591	0.01288447215815953	0.02988674399907656
0.01070507118936492	-0.0142010362386917	-0.003518996522536086	0.05217774203382348
0.00550289271295249	-0.02284289393195206	-0.01807252389386842	0.07442583990051978
-0.0006808863980182874	-0.01611458774238736	-0.02407112966795457	0.04824491692890683
7.602536853601516e-05	-0.01701345323032813	-0.01391361401706651	0.06841304001290154
-0.008314056467455979	-0.01564147763395985	-0.01196779151243615	0.1086043590681868
0.01274962743248208	-0.002373589996302839	-0.02208466664519719	0.09162215999703546
0.01538402953667846	0.00213470660965894	-0.01403325144938444	0.06772776376030938
-0.00582192447930339	-0.007550500079795413	-0.01011545613819477	0.056204688289672
-0.02531673892599101	-0.02190583888142467	-0.01249089184839236	0.04023871159798024
-0.02963943648474239	-0.01912817720066188	-0.0001443563307032323	0.03092566126556054
-0.02958173019450257	-0.0007833573071639938	0.002473371191719012	0.001303470088535369
-0.06065600734095596	-6.921764488625973e-05	-0.003738319110283647	-0.02491842978988109
-0.08063737896734836	-0.01015183970595657	-0.01460746261353923	-0.02063707040791022
-0.08820053730320218	-0.02539871370002654	-0.04692888075008968	0.00233219302294759
-0.06897659322516207	-0.03383291844178393	-0.00855426430773874	0.06595968724906479
-0.04082197707362678	-0.044318824959241	0.02631269103668334	0.02132281396881377
-0.01620350240619486	-0.03851638514561925	0.01736838480250661	-0.01560163488851353
-0.007011973071718173	-0.01544737985322538	0.01765892233877497	-0.06891799965869355
-0.003379622562340281	0.00364011221423063	0.01656641868991914	-0.09353338104692326
-0.009818057969412252	0.007988166682829603	-0.01432753360981192	-0.07854347411706493
-0.006418047791500161	0.01952235858529528	0.001933555432821155	-0.03172876462421731
-0.01767591215198773	0.03101635965904447	-0.0006366166249502608	-0.01632904603723105
-0.02400017911216257	0.02314135780780593	0.00232998999834621	-0.002695633944345202
0.008838646722021122	0.02926982357313879	0.03423970075955573	0.03121835076383911
0.04813185698937821	0.02575216829131576	0.05609863218172755	0.07051481164403295
0.05633120155061649	-0.005055886434803484	0.03624952397027809	0.07142245078398718
0.0449900112732106	-0.0298880059226619	0.009675332453480066	0.06082549539924841
0.03676566873794786	-0.04605231364377796	-0.02128263854261406	0.03867166111545081
0.02066974070989716	-0.06049298954306769	-0.02776264842894451	0.02010697376668602
0.01033462110244918	-0.05102469932022428	-0.0003043219706534773	0.0514746166008419
0.00200518322746713	-0.001071220267024571	0.01038260511596426	0.05366698802300677
-0.02189114241857601	0.04374663327522717	0.02917104515882534	0.02129719196103235
-0.0313375320577035	0.03721843604938106	0.01509983526236879	-0.01493074519479811
-0.02128757048451034	0.0115578298543606	0.007389429434706417	-0.03460339214075644
-0.006322261950973281	0.02370208758889039	-0.005611257661359184	-0.01725255965397617
-0.009743960512886667	0.01451757760592913	-0.007195551770352764	-0.01613868350753603
-0.007557166043866114	-0.01814801719902902	-0.03145517064793463	0.01841797999556504
-0.01297616378660534	-0.0375083447277406	-0.03183877011555056	0.01803586267924894
-0.005631725795181866	-0.008312968628298216	-0.01787044657555385	-0.03249539045214098
0.02561064476686834	0.03816679725942653	-0.01685196977879318	-0.06674890428137467
0.02416597881305441	0.02461504195510467	-0.01442340769031577	-0.09245623953303857
0.02509149392662729	0.02564020992010867	0.007191142761741826	-0.1716546143033916
0.01875600769676902	0.03294631247245251	-0.00530657323304794	-0.161586385132229
0.0144843614089689	0.01960718669994272	0.01117953779809285	-0.07299076541845365
0.002469801732036108	0.006382511823847116	0.01999299296051618	0.009503990077230687
0.007105515571913454	0.0121212242938607	-0.006377281817382522	0.07190400555154022
0.01592451452304285	0.01488673747355192	-0.0572447043033599	0.07750056407413151
0.03179017105334734	0.01602884955730292	-0.009959467822710913	0.07444088234081939
0.02997864886294186	0.01853475082724418	0.02858026965788815	0.02493196224110747
0.02090333830559303	0.003358988182623691	0.01555725632322922	0.01029347820722073
0.01835256860686985	-0.01365934920463152	0.02445133756515289	-0.00425004109410187
0.02641300288013305	-0.02500902531223705	0.04615864254300085	-0.03043977639636799
0.02250806026679847	-0.03537519870225168	0.04606534138625275	-0.02355531598212068
-0.001127765254246816	-0.01881891708215588	0.03692205038553962	0.07101383993041303
0.008686939313499321	0.04110989588594109	0.02515873832755845	0.1230050541248326
0.02653232451903105	0.04524132345329623	0.006223767485949028	0.06081142863057362
0.01656102322371755	0.03360414934980762	-0.0004901189608492965	-0.01844233756703443
-0.001005157745880192	-0.0003976301216126295	0.005143221578086587	-0.09908577537168571
-0.01047678523529629	-0.02607894125311916	-0.01252564673485974	-0.1026181915076421
-0.02068827460393258	-0.02441993848478272	-0.01979153934432422	-0.1070176450481803
-0.01303083654576229	-0.008732982354612433	0.003151993685915627	-0.06182369864137103
-0.006828037235536255	-0.03282162217349593	-0.006661562433834104	-0.074321351608372
0.006138505252447614	-0.05865877426322182	0.001108576290852248	-0.08232317515922655
0.001036645047607451	-0.06123450801437866	-0.02005943027898817	-0.08869241942703181
-0.01557391883162536	-0.06691674673912409	-0.02895466429958615	-0.006847382454310231
-0.02499120889444548	-0.08160569929117242	-0.01101596878183682	0.1115298585276526
-0.008762271918668942	-0.07213317630917541	-0.02054841223124244	0.1147202946572765
0.008209500649150703	0.003576053841093912	-0.01364098132594903	0.1282115280133233
0.0239829279354545	0.06072142808140491	0.01393389830303398	0.03717429335798276
0.03130395757016741	0.08745217846167906	0.01483504095975621	-0.01070822697814526
0.03045076439814248	0.07271394686615695	0.006916123699084711	-0.0140473400507192
0.0453615720319183	0.09014490071713231	-0.01252288470257482	0.02943713511437964
0.0330304250709979	0.08875694253085993	-0.003643735302936412	0.0572305271929248
0.01419224307213537	0.07841744192573329	-0.06508228442893557	0.07841335725591929
-0.02856045943355209	0.08846216980505799	-0.06566945719901707	0.0691829264989851
-0.04015925689970406	0.05998498760506979	-0.03344160659096518	0.03901270488733834
-0.0252017518641222	0.05103907139552868	0.0200233511689368	0.01494886877961832
-0.03173506849217697	0.02008956305582174	0.09739212144549399	0.01158572361787222
-0.03689312577284311	-0.01696500092037325	0.06548093307166997	0.01587618954535584
-0.009618525562048895	-0.04945937480975764	0.0276737278872249	0.02088941731173079
-0.006805305219097292	-0.04995006412563906	0.007841878299632375	-0.01103620263434408
-0.02163239523440197	-0.05589476654084526	0.002341455740218275	-0.02043804067511219
-0.02180828935677715	-0.06277606272546418	0.008903445458240202	-0.01331828147291111
-0.0206556935699311	-0.06734150263634153	0.001342101918266391	-0.006615249701309082
-0.01022491472104618	-0.0545349372083033	-0.0099046282444408	-0.01939343677142916
0.001056388893488601	-0.02719309342810871	-0.01245733102396488	-0.03640479665235375
0.003986159639017527	0.002203594041146348	-0.009924580042648545	-0.0407830024195754
-0.0009990155668428769	0.01341603149632796	-0.01756228233173097	-0.01710870725232845
-0.01324494712024308	-0.0123232561878079	-0.03401387826311912	-0.01422099322583413
-0.02329860927706213	-0.0007936319475246688	-0.01544648912657387	-0.009686299429438532
-0.001120139463334346	0.03597072349386039	0.001133322455861621	0.001292842368459544
0.01238485145499142	0.0362323437710998	0.005488109263667195	0.02073690445368326
0.0317825074087219	0.01724275981957968	0.003297513842990915	0.03886134523146959
0.02664099864794848	-0.007904094975183006	-0.005644920189676048	0.05264080699601312
0.01511368117389835	-0.04161491832385311	-0.01594403748220933	0.02774777658595329
-0.001935218810609578	-0.05289846108554019	-0.009866592056547845	-0.01172700087314729
-0.02222382172589939	-0.0454085705725241	-0.00675053593622019	-0.009647114822522592
-0.02839129309682369	-0.03578628261698279	-0.01278210460424627	-0.0141807679138167
-0.002570567472258359	-0.014470818340369	-0.03527288283051805	0.0142281368045356
-0.004763755214365041	-0.01905564268222412	-0.02073344910737823	0.0674290337601102
-0.02515682756675523	-0.01934981937907516	-0.01109259548703246	0.09484264211332744
-0.0301511108601177	0.003402761806511162	-0.01437816868913509	0.08866725797389888
-0.003554538162242787	0.03746518740734236	-0.02655950784553525	-0.0136251092955835
0.006247129069269126	0.04270129646268846	-0.006344599235084052	-0.07160051756326427
-0.00322867483331395	0.02371474486635124	0.02324701243958013	-0.01763549335259228
-0.01943702602135721	0.006184345188841036	0.001907926061926427	-0.06076808447872793
-0.04691552964607228	0.00243101620107857	-0.01796348644009585	-0.09428580625138737
-0.05265107781809533	-0.004053325178635611	0.0161126006715341	-0.1257725870909635
-0.04856321165885089	-0.007568497935303007	0.05466963655743881	-0.184634243753883
-0.005105392698713231	-0.0130935921155481	0.02526438335965921	-0.224356137744111
-0.01866414209402081	-0.01450402833984579	0.01142395125114307	-0.1848150313252683
-0.03141696932315992	-0.02439145688218037	0.00857696585828264	-0.06359386598220905
-0.01666540543326655	-0.02822990464189361	-0.001346160752523994	0.002930510633329367
0.003515689150859696	-0.03240133393706632	0.007757997883563661	0.03002892073575159
0.0009368791165477266	-0.03941665917503756	0.004071041835439534	0.02544564556495534
0.008579964601105664	-0.03324114133012289	0.02090190346107539	0.02286583105156853
0.0406784008864902	-0.02392554784153321	0.02700938607040183	0.02042967111433702
0.03914184907692887	-0.01729606140594986	0.009937154423720153	0.02797188575004953
0.05039899932676736	-0.01100745347650279	0.005288019623996581	0.01371904192381434
0.05098959584531862	0.006551685538161892	-0.0127713640502687	0.01083771122274901
0.04993519341519686	-0.008715739701511672	-0.01675679861982307	0.02340110341632113
0.04081278891542966	-0.01705853105740518	-0.006180463472488788	0.05465278646461495
0.03762724690739082	0.004455209592357634	-0.02433261622664105	0.06969271582770641
0.03640527316466964	0.03468973248725425	-0.02003078946632524	0.04702109779584875
0.01345315855919394	0.02786154341440661	0.01181659284504673	0.02391077178600445
-0.04558744792660312	0.0389681641452583	0.02100051183215284	-0.01617950890152186
-0.06430732313727165	0.04844987194887738	0.02657921085242768	0.008975115491014228
-0.06378208761835265	0.05341619688753776	0.01486729186515571	0.1205441262276905
-0.02300615839050326	0.05999614503718358	0.01742638383508355	0.09156161975505123
0.006651103406921901	0.05088530463638311	0.0138918405962877	0.03184820900421267
0.01334881759743684	0.03234457404913611	-0.02296158650711138	-0.0113960628350786
0.01634544992340477	0.0155439222023724	-0.007003895892605166	-0.01003853943778031
0.01406521309165451	0.01872958724161648	-0.001904748446986527	0.008887180838324028
0.01448828227308741	0.02150582368195908	0.005953956390084282	0.02296673598630049
0.01499841795682412	0.01933970265352277	0.001972583547039686	0.0419134213224631
0.01298577797159728	0.01026998898274261	-0.01404498738889394	0.03490332663432823
0.01655020226274439	-0.004157907392772303	-0.02457892805700029	0.02547383779133091
0.01706129658100235	-0.03081772829585005	-0.02040366687633903	0.04871634104417361
0.01512094980469646	-0.03838792605646409	-0.003554495368945113	0.06071242832162084
0.008513052659524099	-0.0461051079528132	0.01106456711831098	0.05086713480647033
0.01942563742465786	-0.04018894575295395	0.008686376866980473	0.03664712859641631
0.02667648243536781	-0.02197427508429603	0.0114923535330561	0.0267102410244017
0.01598863629224671	0.03499563960014781	0.02011279461728298	0.02149021013951447
0.00100879331149198	0.06038062383432481	-0.005919818671222235	0.0008143532795519301
0.01128519336301014	0.06216016347517702	0.0002104185276034311	-0.02205197766607193
0.01111969372307525	0.03897811078718554	0.01925889344421932	-0.02293239354053907
0.01050650982225898	-0.01000736425642909	0.004994442833763054	-0.0184058622947549
0.01694884500271335	-0.03071729701976914	-0.007008460639624218	-0.02088308212933099
0.007393323658759425	-0.01152433180287813	-0.006923516958913837	-0.0278850011554034
0.007187880184909916	0.01208304964681213	0.01840665377595924	-0.02559220758368603
0.03116063754937579	0.0531581269482435	0.000102143183685968	-0.002640409997305157
0.03960018688081255	0.07683414051371572	-0.0004343180231716436	0.004252961658890043
0.02671928150713695	0.04885418291837185	-0.01071682072092681	0.005330230865052987
0.01967483182731775	0.006561912227316762	-0.008293348273901753	0.01121468525490857
0.001270842214654931	0.004249748040853315	0.000722242275689896	0.02438506697633698
-0.01469857436153475	0.0133475759291806	-0.003387729968842432	0.004898444053780967
-0.007280933775117509	0.03084487392771481	0.01282524970218292	-0.003620525377265117
0.003839315314770709	0.01092223922762038	0.008904135492227901	-0.001859693707528336
-0.001727604352925099	-0.005326563556431331	-0.00293384056662296	-0.0007579134138271097
-0.03795997748899858	-0.0310027219615319	-0.04394596299844843	0.0008437773485146387
-0.03190904998910431	-0.03378388267075389	-0.05819313240879512	-0.02585067419931129
-0.008170240502432756	-0.03480780825002316	-0.05365650510795837	-0.049613779108152
-0.01295651771265045	-0.05748613699434441	-0.03808475993559737	-0.0516701562868082
-0.01923961210975301	-0.0672080576902185	0.02453525637260638	-0.06890491045110395
-0.01903077268564103	-0.04953021665291665	0.07782359433429485	-0.07157306622460843
-0.01141782528235873	-0.01155895229281697	0.07602313623746038	-0.01049931218251268
-0.007062614526113909	0.002920723374593027	0.0484761802288045	0.007137155770094369
-0.0106961628691311	0.01678656677897132	0.01435564442026064	0.04632735699567153
-0.02400222909762698	0.005818628705258189	0.004776235842743773	-0.02554812500215024
-0.03347020896058987	-0.01245360533883967	0.01712684974889423	-0.03128000584653334
-0.02166026826901585	-0.009291128677163685	-0.008454691895290039	0.09754225019324984
-0.006219064716743602	-0.006783469084205937	-0.01833401611650331	0.147700925143724
-0.002861405568584667	-0.01527378654307941	-0.01310634707691331	0.1055163957553444
0.01586730176237858	-0.01629946459116294	-0.01616208479068433	0.0575126094469247
0.03026300750718569	-0.03030760638320797	-0.01107266106421858	-0.03924513916006372
0.01861393815534333	-0.04129084196534442	0.008348978582894618	-0.1864211722933646
0.01248523982620604	-0.03885317227138065	0.007046613888751617	-0.1960126730520269
0.02229462438222137	-0.04009974872655119	-0.01087164369370936	-0.1306944463882751
0.02125984591107068	-0.06314211069517701	-0.009009024413514411	-0.03719348606072138
-0.002954917718578452	-0.06872927702892502	-0.01210172528647288	0.01025298824427384
-0.02154069596985591	-0.06228939702637604	-0.005943400277653302	0.0279976888035881
-0.02471291564837695	-0.03538061152980923	-0.02275843876908551	0.01452416531222621
-0.07156221359602938	-0.02318609099707594	0.006935767234678221	-0.008446351824092466
-0.04727471488697169	0.03626958558617776	0.009501802874806441	-0.03491132014950221
-0.04006844370598707	0.03446628546901719	-0.004563216953210682	-0.06490148008698582
-0.0429592666695166	0.03875521294346753	-0.0342274734181576	-0.07394730379123317
-0.06063246127728755	0.04239879830484427	-0.009728427990937788	-0.1018186435109938
-0.02234009911884593	0.01201078960428544	-0.006462215643123693	-0.09734340539932336
-0.01860435936403708	-0.001278104352342078	0.01234417476182511	0.000348230915305569
-0.02668301567171933	0.003908221921090295	0.01020490127549415	0.02181843756708429
-0.003826023826703496	0.02574898952057233	0.008856210933040589	0.04238736675398388
0.005097148693480824	0.04349823961790094	0.01405106280320833	0.05027045575938979
0.01863554606977154	0.02542173453841033	0.03163572366382435	0.1331060682522157
0.02326035981721379	0.03100441813858913	0.0101236689949408	0.1854651042529051
0.01652674092392033	0.01025974534279346	-0.0005598218663533703	0.07128893124536129
0.008341529972601829	-0.005509453360918435	-0.006802380944867455	0.03560069946637829
-0.006398189287411301	-0.003780177354962737	-0.03699195989486906	0.01938923689889947
0.01605027210381262	0.0008929436930498467	-0.04194813528802511	-0.02257262779548698
0.02294503057857425	-0.001940470804802632	-0.03154516674541591	-0.03122815082108603
0.008218391655097714	-0.01586438663941336	-0.005448698165602393	-0.03990394806142899
0.00835087337369721	-0.007280437603507007	0.00412903096557633	-0.03830304569998139
0.0006735840165128118	-0.01163983770028812	0.001561850815870453	-0.02764451764417319
0.0003120862994109238	-0.01343326768417561	0.009467216625964446	0.001477547241815168
-0.002355422541082064	-0.0132447809858518	0.002704896939193817	0.04507967893171137
-0.008905485009009773	-0.003801841531017365	0.0009215282196666289	0.05656102605550061
0.006066608784921147	-0.001921465056800529	-0.01157118744306359	0.0786992973878482
0.01454601147106514	-0.001637097439921722	-0.01576959677731348	0.05156665454683911
0.009312854026625354	0.01151210484832987	-0.02994250441602471	0.03682486325839193
0.004803122786433545	0.03246832241851626	-0.0309462370418607	0.03346665463988968
0.006638472624630592	0.03772219114764492	-0.01730291337305653	0.01424077138828805
0.02480134938031952	0.001684703455281729	-0.001547232434213113	-0.04392292541822507
0.03080559840160288	-0.01091512972131064	0.004157711990595396	-0.0452833793310647
0.03250609106224857	0.02045570203283118	0.01462546154087828	-0.008918504919942222
0.03475717698962263	0.03451715570303106	0.03266184012541546	-0.008899911900238365
0.01190179532348961	0.05970303820199378	0.03476874836824081	-0.02486206508502591
-0.00325417188024094	0.03575231532255442	0.03984175207650214	-0.05399040446829657
-0.004565703138886684	0.02017099261556037	0.02516264101995261	-0.08022405761762404
-0.006425510912414175	-0.006895441212540778	0.006738344187888877	-0.07220684766506393
0.0003508751632843478	-0.01699716368625388	0.01309686810876245	-0.04697447743507246
-0.01890722145262786	-0.01684979630897632	0.005052595526191135	-0.04301139366066146
-0.003471337096782828	-0.02135921170835053	-0.006866361899245101	-0.02162841075357587
0.02820800004820875	-0.01860075740699913	0.008573223883078268	0.06277267227076787
0.05299765493656128	0.008251563235743007	0.01275570560168117	0.1046949064331813
0.06253783224517341	0.0007822877862222423	0.002716481591214534	0.07041384348713917
0.05712387889300317	0.001880367409150653	0.01392580478902631	0.02763500861819762
0.06391973934213699	0.03609126054276447	0.01051690219195132	0.005640498945201081
0.06508745558387309	0.06567649168566776	-0.02907926172982443	-0.01468691531197637
0.05241085737569743	0.06454612949937566	-0.03216643067134728	-0.01548422637859206
0.02801586875450572	0.05123911831858304	0.01652242754825786	-0.02442077375467984
-0.04767160566753247	0.03045421921681237	0.006116888631362223	-0.006911286521496616
-0.1104374816103293	0.01061481940763155	-0.002920334529761062	0.02422726251172733
-0.08325309518491651	0.003175876135397636	-0.03610320822517642	0.02807290230447804
-0.07904414923551516	-0.00585193549609273	-0.05505574602017831	0.09076646830863222
-0.07787405733205394	-0.03381247423848115	-0.04758678873049379	0.1250831116774422
-0.0776830554049593	-0.05141193750326137	-0.03773079809189579	0.1027673298102512
-0.05511217148729852	-0.05763970724944255	0.01148060009954561	0.09375469371458241
-0.04285950302072136	-0.06515415225451827	0.04537233404870086	0.06467474456526867
-0.03574924806233764	-0.05561836251481971	0.0492904427410617	-0.05934821563490936
-0.01959324605369888	-0.04363808603990398	0.04494859538770261	-0.07592737741354434
0.00609585949262257	-0.02256926644613544	0.02988932620175585	-0.07140452840175766
0.02305568412727689	-0.006747705741477235	0.02215073162366479	-0.01945025037022431
0.02366565737448207	0.002999889516301917	0.02640124119753879	0.07875893433162326
0.03587535681038146	0.01632369313055874	0.02522066517469524	0.007847280500024643
0.02785170630843391	-0.001544122034427753	0.01825730272693444	0.01469900878487071
0.02315827133699694	-0.009500617362772778	0.0291055790611494	0.001812485335680491
0.01025194676669932	-0.03198656440499377	0.01333641911552366	-0.04307741306362502
0.01021149308359703	-0.06153388522275001	-0.01470927971152397	-0.0542805925998138
0.02842683534625106	0.06325133520376937	-0.03210292749307642	-0.07415530829314619
0.03025744946336799	0.03917612991830486	-0.02364577746244287	-0.05312274447363966
0.03902974616673023	0.03017540862810685	-0.01266315991657599	0.002238944934489611
0.0358351021664225	0.0250740675643226	-0.005501173554736355	0.01177652287218789
0.02776555539689751	0.01926964081181647	0.02332993649773901	-0.004119834375617455
0.03421288251080032	0.0218355988896095	-0.007525750428992539	-0.006552755641314686
0.0268900872195144	0.009504025619592191	-0.01956427869337668	-0.01774983662400224
0.03442794676871404	0.01073614047245779	-0.03609771761231406	-0.03512105833477606
0.02550274377075742	0.001780384727483567	-0.03825783269914492	-0.05779323865906107
0.02372652720630867	-0.002802552406336191	-0.03062256358639491	-0.06667081300613267
0.01590503673999859	-0.008819808296977708	-0.03553545761705017	-0.07864884703201035
0.00488975629116804	-0.02446062936623378	-0.02008711877653939	-0.0624147958871034
-0.02439569341698329	-0.03030468526449537	-0.001923159908824265	-0.04768934534959143
-0.007108340104625641	-0.025821028944391	0.006394167266387649	-0.03684157615963089
-0.002271722592545503	-0.02828466524243943	0.02267256777966889	-0.006267579854810223
-0.009152880463971867	0.0004649933381298144	0.05438032675899931	0.02660575557007477
-0.03187183033400643	0.04370312755615038	0.05703489761879894	0.01940831378837029
-0.03023000115327717	0.04796394848882703	0.06078202950130004	0.0119492618291434
-0.02505060730664399	0.03134909485114884	0.04534259740280417	0.0112637680830458
-0.04113136276120921	0.006095693354985457	0.0392444741821811	0.01242180186137804
-0.04233536410202614	-0.00748049788610511	0.03838549148506537	-0.02448056564446725
-0.03078151844534709	-0.01476953780142643	0.0211448710263907	-0.06497314907545973
-0.06109982217095723	-0.03707564972026421	-0.006276616043841315	-0.05742048856812892
-0.05306448311300004	-0.04301584638731118	-0.04503303215081765	-0.02888351250295149
-0.03630120082334279	-0.06172125050080721	-0.08904870460637059	-0.02747241859416645
-0.03716799509704479	-0.06039865353235412	-0.07332776255800065	0.09875879781612762
-0.03220211328649104	-0.04200179157276196	-0.02656836046941005	0.1962800853160857
-0.009844414763696272	-0.008096475877921283	-0.0091393096000922	0.0798270555428944
0.01141029169765576	0.02493580386328915	-0.01390741237116262	0.03495843327531101
0.02147353591733747	0.05985316646425015	-0.01180380674213041	0.1090817674533106
0.01966511977245695	0.04979102694036402	-0.01687646186173346	0.1028926479204457
0.006500335633286524	0.03339781965403973	-0.03470006837566011	0.07255918212268382
0.006978538368520245	0.03478542896539658	-0.0295806036588069	0.05799637807611425
0.01629767691688532	0.02300584142518813	-0.0293513579623904	-0.0001721233066759517
0.01299438595094499	-0.01681426085109115	-0.03245776210271942	-0.08928462718994726
0.009922825054180549	-0.05167237721196096	-0.006875679107894377	-0.09485829463315527
0.007163725712895022	-0.0664638352763566	0.02237779924764794	-0.07740679559232666
0.01099045459983289	-0.0781904215162449	0.05030111236246516	-0.06768198719046459
-0.004364201498637024	-0.07809601362537161	0.03961878386406702	-0.05419646949344903
0.0007975242919192167	-0.003491723263213486	0.02085747662614531	0.001344645910501801
0.03774806634808335	0.07528743790499064	0.02285810436171264	0.1886694027201717
0.04185022023393952	0.07186523300416174	0.01548496676383438	0.2378649696112415
0.03292319464788325	0.04576756965236316	0.008522921897752903	0.1508489220399642
0.02938597318009299	0.0334240773511794	0.009116741106634765	0.01584407442204438
0.01956663303438897	-0.002447294650618327	0.01862300043561985	-0.1876589336157662
-0.004632939824476142	-0.006972783612984014	0.02859087156853862	-0.260811564777543
-0.005202743427205936	0.005908005968510321	0.0128328550572029	-0.2209713629739703
0.001814383423805487	0.0341346025245426	0.008765158608530539	-0.1135812990144468
-0.002435324793726117	0.03106872002684696	0.01918816730923475	-0.07559846012164553
-0.00543727056925887	0.04281474775961912	0.01025839807261034	-0.05665161300853212
-0.01520186772014719	0.03620522067318636	-0.004657147485399245	-0.04041188593650514
-0.01420503898000588	0.02949160836532315	-0.03350382214456876	0.0153495587456829
-0.01468342029186798	-0.03841443975411736	-0.08631849125589358	0.0297842585548038
-0.002020194710776719	-0.06434540966615968	-0.08448546682558924	-0.0009221550650808613
-0.001526475831502074	-0.08768774498122249	-0.05127144380961525	-0.01269621296386886
-0.002003459428335574	-0.1005412839039092	0.01065927094238187	0.01177249679608882
0.007452277904683205	-0.0748497923064501	0.02857714256031358	0.009766581283328458
-0.01418699297395892	-0.006088682564999344	0.005908474603996863	0.02086681112831326
-0.02102090909257529	0.07344242173118921	0.006404218880757398	0.1063552378985808
0.01769328565648814	0.1271152905157494	0.002046991149489641	0.06699217361963387
0.022061258592647	0.06720649673784387	0.004225596583238669	0.04545381782822913
0.02391212490615933	0.02275757503575051	0.001786311612752384	0.03690378103129596
0.02118546450928181	-0.0006848031174369729	0.01620934161094622	0.03874585195958642
0.01348085856244154	-0.00445181402244911	0.03548071662258984	0.05021048920954049
0.003053540023137789	0.004427592769221862	0.02796434288303683	0.04032915070670526
0.001529069658276221	0.01603190912642207	0.02156607434977861	0.04453821889167871
-0.02768617820809329	0.03670755288531331	0.01064189672948211	0.01872599119167636
-0.02500239176284328	0.06609851699784243	0.02076258839062482	0.03548389334965454
-0.01436249094031547	0.03893658064813445	-0.003871693696802805	0.02277258318473292
-0.00269896579894166	0.02778549116165397	-0.006972121551109461	0.04003427909786105
0.005540358558195793	0.007097436348919679	0.004778809187488405	0.04267663828994155
0.003083046678792937	0.00205575135080496	-0.00953979103739179	0.01121252802216746
0.01277557849246485	-0.02997961993122679	-0.006224076345451224	-0.01377614458624754
0.01224422767609975	-0.05739101831947031	-0.0124000593066044	-0.04221963230519823
0.002750753281640861	-0.08178792039850583	-0.01872173606813765	-0.05310154442059925
0.005283768755437274	-0.08486762582895015	-0.03450654439377249	-0.06595889415992193
0.004758142467986305	-0.06085277642232111	-0.06178982382743701	-0.0943583517443838
-0.01475972748300783	-0.02600019177981619	-0.01870248230431933	-0.04365922063442571
-0.003455390118668062	0.01618156476802689	0.03197235923502634	-0.03011707945289009
-0.0006628429401471319	0.03436900797815261	0.04682142218923011	-0.02500279126915565
-0.03406824157472316	0.04318685847693067	0.0333193978593441	-0.01784669323699538
-0.04502157380289478	0.03999297013473335	0.01990061071695399	-0.003742299992093793
-0.006619793257864076	0.03407984750076397	0.02576053802445526	-0.006843384099534293
0.03186916417866027	0.01912227139670561	0.03007293882850146	0.01995278808962681
0.04053556131232308	-0.000203060809332787	0.02145009774396966	0.004120968319104638
0.0426913059494641	-0.01492220786784334	-0.01643053268050062	0.02056120978620509
0.04077796035789952	-0.0132686630121273	-0.02538696693746541	0.02882551822040502
0.03243889599313114	-0.02405288065709527	-0.03634927141232801	0.06907350186177699
0.02644444157610043	-0.02934881679956509	-0.009489914108873532	0.07166016351404157
0.03636228244601926	-0.009205309028951104	-0.01380171627093106	-0.007220158426002968
0.02514988061893309	-0.004069207529829199	-0.02557140784594678	-0.03322741918002023
-0.0248057485827212	-0.01398098835371362	0.0105970112491431	-0.03013919273176737
-0.09820528296387586	0.007329925851908604	0.01371264988402571	-0.0191220469768418
-0.07587390264635585	0.002209226664604722	-0.03305315938087039	0.01381027728563391
-0.07919706790275845	-0.01658977765690765	-0.02358187510357675	0.07149581890546541
-0.04106752653930167	0.00411760579811611	-0.01787673152771006	0.04175841457076761
-0.01402571894423733	0.03890752837364575	0.01358931710711465	-0.003620592244658619
-0.02043450737186967	0.04030129968802514	0.05385733744719833	0.03541049342052111
-0.004392339010363605	0.02779704693031552	0.04593209884418793	0.0517743477804008
0.003308979382841771	0.02860203329589234	0.02177024523305777	0.0699662231317415
0.007140949330939395	0.01167580623989904	0.01499533514654796	0.05330931584637107
0.0005909328954753344	-0.002501728192505952	0.001232399933873217	0.01306975427158076
0.001911277934170876	-0.01728015443727703	-0.02142426538857182	-0.04393498377498059
0.005390355528267044	-0.01575760491101684	-0.004434000800027278	-0.1127135425295904
0.002429340935975395	-0.03401959748758684	0.0090535997628213	-0.1038090805173199
0.009029646042475543	-0.03603646127389539	0.03507468692335805	-0.06536002796266423
0.005194759331401784	-0.04370456812344941	0.02662566275798194	-0.008562681034396093
-0.0006464503649272799	-0.04255689577000753	0.001577269126024513	-0.01646489585556772
-0.001533104347794542	-0.04957601303882158	0.007806064425249467	-0.0344197660022267
0.002377199502419406	-0.04135997821203926	-0.00842348801580479	-0.03604582751231786
0.008974617157463304	-0.04027626253165278	-0.01586961987646697	-0.01021984537322742
0.01328164231023398	-0.05827517994042857	-0.02289489281231898	0.02133382352425611
0.01267708930104066	-0.05634224052663722	-0.02293674130532353	-0.02027837310996439
0.0008083112211429435	-0.04184198953279745	-0.03117648071058038	-0.01405662499465417
-0.002470542329695591	-0.01373057347094104	-0.03011339698168706	-0.04932355568067686
0.02316388273420866	0.02246763349782379	-0.00641921352140352	-0.1096593740940945
0.01012513806949991	0.02830382390224857	-0.001903095347502146	-0.08101560571178765
-0.01752017478561969	0.004293210526294326	-0.003337871552498104	0.04369074165066979
-0.01903920653177975	0.005949255462004534	0.03404120762016499	0.203383857892004
-0.003599091489756904	0.02334939413054947	0.04632763858081951	0.1430187248480781
0.02149692371404813	0.03690152764850228	0.01661527448789904	0.03612455468784272
0.02046859475476326	0.03884824284951226	-0.005694233041759357	0.003220179410317994
0.01286275125030385	0.03252878884016656	-0.007681159068305562	-0.001505662318229053
0.01350160718172767	0.0143218964644843	0.009009303714942636	-0.01317271544443934
0.02549268290099542	0.01296319882771512	0.004721060104378484	-0.04186878970294923
0.01731069929759904	0.01512162541928695	-0.001431004294984806	-0.04423734704551955
0.005428033539204051	0.001268844050992417	-0.004743151405331389	-0.03935040167619671
-0.008052593588524223	-0.003803271183382621	-0.02307945931977065	-0.03062119568112459
-0.02874672417846028	0.01128110000483985	-0.03247989755711013	-0.02157716701505499
-0.01030295000046576	0.02971642286569845	-0.01950215777235158	-0.007973483395229918
0.01540514061274514	0.05835086175397592	-0.00374932120042898	0.01664418402483145
0.02772817194712909	0.07377448413654132	0.02811000511735508	0.04613237354995438
0.0227944790973962	0.05257820163516391	0.02436725284084531	0.08405767358288174
0.01587256961873267	0.02393296506620992	0.01449322616828276	0.08601735875217682
0.009505254173311528	0.0124997561610167	-0.006063176854100611	0.05226000139007225
0.008976956782001241	0.004748391051402862	-0.01065052715033223	0.03413628255388711
-0.002843465679677766	-0.01082964829823661	-0.01011665861131192	-0.02061474913711207
-0.01449734990024332	-0.022765673740635	-0.01289425462859497	-0.04955606537031864
-0.02602594141454863	-0.04592573728026336	-0.0148996151457128	-0.1061976450895859
-0.01793318862986555	-0.04984157196977761	-0.01208535656884098	-0.08470562762173788
-0.005746792156451964	-0.05279846661711007	-0.00121209074247472	-0.03510131241675278
0.003118914851538775	-0.04831053929632749	-0.003061591821692983	-0.01627336248306555
-0.01983416143513295	-0.02783566473378047	-0.01163495198533089	-0.03767594089423189
-0.0359905296346065	-0.004118833336224064	-0.018237588403045	-0.01412177326854103
-0.02426385726334611	-0.001251972874818	-0.01117357111567336	0.03388479827968398
-0.00324074934496492	0.01543759496658805	-0.01303000445797459	0.05282896008602828
0.01755094245657114	0.04417984781011101	-0.01760196140262551	0.09224851644174241
0.03249586578213063	0.05935056995225626	-0.005838893767449518	0.04993298105712266
0.02199686132917123	0.0556402284312174	-0.0001361644952349824	0.002351038657873778
0.01005699973234779	0.03174296652465625	-0.001462091663560784	-0.008992323575570204
0.01100532192544746	0.007519735727266925	-0.002697252087046331	-0.05634218260535435
0.01213757639194152	0.004784981803653747	0.00246364738636877	-0.06350927170243327
0.01020578794969295	0.008719810876494488	0.01385410116033063	-0.03672728481084037
0.003483946534324643	0.0057477616263714	0.009012902468091112	0.004020998504100041
0.005234574324336904	0.01545289487827957	-0.01266624030429348	0.02379515115911658
-0.002090608137522681	0.005736532128661417	-0.01819053237770808	0.01025561060419119
7.559687260151935e-05	-0.01687951951705943	-0.02318332127010245	-0.003419337790567034
-0.003298870036782098	-0.02411379043733769	-0.04111491930400576	0.01673169429704478
-0.0001939500444838786	-0.01431709407389601	-0.02162189574056711	0.02965622653916819
0.01327943607737817	0.03303151829639051	0.04435519419227335	0.03951063858494661
0.03316409673454713	0.1198156087248012	0.1034308120811787	0.02227925095095173
0.02324727856663539	0.09745270150660902	0.0627831133414234	0.01785779413017083
-0.001161073509036561	0.0427194207565692	0.04991192081259092	0.1155235983278216
-0.005973224047374858	0.006620494186342888	0.03321458444708478	0.1301586889790379
-0.006361532521909949	-0.00154920339920618	0.01894021421502195	0.03004513737740443
-0.00237715715718076	0.001253793241065446	0.01221574113855777	-0.1201941067615508
-0.004019574985006145	-0.01476440204034768	0.009628382461334066	-0.2432578802114355
-0.01744113936072253	-0.03602878897464012	-0.01233796802355389	-0.2364207729374722
-0.02183426426017766	-0.05290860053612795	-0.0152659985215178	-0.1343856431492727
-0.02717068342150953	-0.05255670636797848	-0.01911850993796398	-0.07316828154147303
-0.0318244032416094	-0.06934482017440029	-0.005536134529216479	-0.02107643041402008
-0.02598253364379304	-0.06860573302834204	0.009372547800589871	0.07352029129697472
-0.01506600338896597	-0.04943397690179982	0.01523551987178552	0.122826049301607
-0.009269578399162809	-0.01409966494901392	0.03677423541471643	0.0725712427899948
-0.003645780685065997	-0.01967705580392605	0.03009081311934884	0.0310742756708183
0.005884119347059387	-0.01033399815800752	-0.004982625193066336	0.03755028616474042
0.007981232795106836	-0.001385917486596435	-0.01249450620544545	0.02145395533056411
0.004354830915385356	0.02307361107110681	-0.006674228249660621	-0.004771904203166444
0.002052687331428009	0.02441721204856758	-0.01442976774964184	-0.01007470394342763
-0.008147336298074404	-0.01628058182316769	-0.03276458920791486	-0.01353558446919683
-0.0171832098754325	-0.05362704845895989	-0.05394027251354724	0.01204022676735684
-0.02955836515919309	-0.06284117297862979	-0.03322329465384993	0.02857805983397439
-0.03378422192361352	-0.04768875305330582	-0.01553646191134887	0.03978573474064906
-0.03329928368386104	-0.0302403674264159	-0.01443651865421926	0.08213986437736931
-0.008045868179517553	0.03872346864056504	0.004142865249750838	0.1056326735339624
0.00836435278892755	0.07297473471732339	-0.0001958086039385043	0.08926946184875893
0.01196093119123675	0.06317574978036458	-0.008244706868938263	0.06778844837960654
0.02639890276179866	0.03511522983511428	-0.01360273046607393	0.04624098332661176
0.0155144287240567	-0.01745061026330101	-0.01878412769592546	0.01503197655622384
0.007759955339217662	-0.03430655067170192	-0.02663812078271862	-0.03490025536138783
0.0170655596590841	-0.03296600427454995	0.004741853588350145	-0.05334248095932013
0.02124592681662423	-0.02769521972934481	0.01247929031192521	-0.05008204043336465
0.02377044426401912	-0.02540345516198045	0.01535415677473506	-0.03607538134530545
0.008223732635209634	-0.03717881607454969	0.01034755050354804	-0.03192731795746627
-0.01606962532407889	-0.05239258407177555	-0.03994448882113743	-0.02755572773871589
-0.01666100375943267	-0.0594685000759978	-0.03861277342314813	-0.02299255921999062
-0.01255739397302919	-0.04964201258523904	-0.01761488427981161	-0.02939138133475421
-0.01251110167668342	-0.05038489734993425	0.02144504624882084	0.009613592206811425
-0.009212301245965214	-0.03637922451697936	0.03123573528467471	0.01517561511829052
0.0008827714799734417	0.01131552620721265	0.03049318068151692	0.01823986108790092
0.01196219610261279	0.04039719973961309	0.02335959235608482	0.01802244576383005
0.02496135451125641	0.05970989354161063	0.01519047003857102	-0.02109057954388281
0.001234362717535094	0.05256194858861304	0.02231431783528602	-0.04932795153756217
-0.00694996757406463	0.03946907912570036	0.008322879735585091	-0.02020788340511449
-0.01283834305650465	0.02343692884029454	-0.01734775390316171	-0.04148849059576569
-0.006573059165469999	0.02498331276174677	0.0004958831791919362	-0.04954648148417595
0.01043238180265054	0.02840426294879966	0.006795240900466045	1.421115054147694e-05
0.02291708442527964	0.02819640124267289	-0.000323845058922042	0.03266912066325027
0.003757082360519077	0.03273544368068274	-0.0095582699916024	0.05040067025459206
0.003070607256466421	0.03029920581748112	-0.02832506324076	0.09178342961085877
0.01739822200831136	0.003665182420998872	-0.02222056514789139	0.1134404759016739
0.03286241496380037	-0.00170064278175179	-0.005736329950886417	0.07080860893460877
0.04603403159997499	0.006620248869724134	0.008475095176944438	-0.03832176514685164
0.04075495642458248	0.001226763588283573	0.01634324087205363	-0.1014205456669943
-0.001825637245378112	0.000253430108494863	0.008497847750888264	-0.1277006509186753
-0.05175371440676887	-0.01584271333257068	-0.01016004224165951	-0.1128473101309068
-0.01715830834170083	-0.0114182905299447	-0.01540905377539954	-0.07710894022498857
-0.002294425951083887	0.0001765398620049759	-0.02376891053245259	-0.02011422781774714
-0.01654326654340118	-0.006819100034110319	0.02197360424570727	0.03704474150403785
-0.007926105721503256	-0.007261300861219957	0.0161459685824302	0.04010521917917963
0.0003875704702657593	0.002916658120209399	0.005943115235898061	0.03051057021355286
0.01120364817570548	0.05910379917455863	0.00118564797656268	0.04708924868487714
0.01627651581785151	0.09440797774017806	-0.00250447507954373	0.06402504784015824
-0.00983463406053468	0.07025664796001187	-0.009937007749820445	0.03546114358135232
-0.01961209788127571	0.02229055584265801	-0.00247033285383778	-0.0117158265677058
-0.005274322888359206	-0.001134376981485293	0.005511533669008028	-0.02995393653612795
0.008602013931779916	-0.002420180153960042	0.007682626141980307	-0.05862824980114757
0.01518621934157273	-0.01503467925349344	0.01292016231452752	-0.05346491165070746
0.02100258426533226	-0.01583402360610806	0.02306399038500578	-0.01135854879185111
0.01664462607472938	-0.02227549358775819	0.01111068806059957	-0.004747530205305299
0.0184879260208449	-0.02575179619145004	0.001639570203368151	-0.04047156865596522
-0.0009595479143945405	-0.04407496912094005	0.01316580459500278	-0.01529206403047002
-0.01266694465100636	-0.0456197875678304	0.02525171106317212	0.00556632448760678
0.003599453379214708	-0.02305246770794992	0.02590085571709118	0.04115698782882769
0.01960415834262926	0.01171576165029055	0.01278325084011416	0.05207270433920405
0.002522619254151044	0.01700935399925651	-0.03435712614142995	-0.004999087850623812
-0.02959240792511034	-0.007061668416046597	-0.06916358765921142	-0.02874397037676342
-0.0671416183869917	-0.01649492720086645	-0.05565777164690873	-0.003240819916698411
-0.08122730242014875	-0.02288142450073247	-0.03096011164112138	-0.02439224941491871
-0.07647114114475684	-0.05450615400180412	-0.01480461838719041	0.01936202446220548
-0.05359811211489255	-0.03723895253251499	0.01407066911323056	0.04240971658715306
-0.02413560610355657	0.0009680600445835007	0.03907369067527983	0.03276880322452636
0.003228901698472902	0.03302158262181193	0.05357254027584066	0.06271740254131655
0.0210844910271126	0.0575846846547976	0.03877416617351863	0.0671877235684095
0.03591901400378661	0.07907070098499649	0.01925207466157235	0.03103483962290996
0.03967479498773671	0.06453725530209437	-0.004984161532579323	0.04065134048806206
0.03619901378034705	0.0412395759090969	-0.02568536595781826	0.0255592032531369
0.03275604356723426	0.008830168309133446	-0.03495391653709512	-0.004949172330273255
0.02347098444888056	-0.0226594067085904	-0.05242464498690023	-0.03900577061411574
-0.004977108521673141	-0.04658208639179352	-0.04991841511468496	-0.06506916010008718
-0.01010724818814871	-0.04918042928822694	0.03971673784446529	-0.01399752000243712
-0.01725750790622214	-0.04749341277434619	0.03375492992537615	-0.01403980112935269
0.008665812133055169	-0.03154878994675518	0.02108705772434875	-0.008159905400779929
0.01842432810794928	-0.02920137010660309	0.02822823462606013	0.01081882445238719
0.004914731811492473	-0.01445411329293596	0.01574552514911205	0.01001957704676004
0.002902884477424191	0.02465966373649821	0.0130085376864812	-0.002004359214223823
0.01302682906480572	0.02756467098562214	0.01718332282710087	-0.02846286335744644
0.01355603290162636	0.03561193035609546	0.0008904900308686469	-0.05837109128893155
0.01572240038349584	0.04327128732258215	-0.02108983944841606	-0.07413897736758977
0.01545686978018503	0.03659394788515287	-0.0319648217389675	-0.06755868344915528
0.008043295363795739	0.01520148409268633	-0.006074192066830243	0.009769516293150423
0.0002927429361723562	-0.01949516361321459	0.04670152665287173	0.09621178006328211
-0.003888506330734911	-0.02329386404438632	0.04401720874916173	0.0935839817150899
-0.009591046445712698	-0.01442014776167315	0.009227184909473093	0.06406971653440481
-0.01337688311563225	-0.03869658240751062	0.004761009264253429	0.06677081203569302
-0.01213726830118503	-0.04758399765374411	0.005155730907715571	-0.05655402197466267
0.002109814723151898	-0.0375518295362929	-0.01066336981992113	-0.1224713049178568
0.009620855935834793	-0.02286839610067752	-0.01408223049733312	-0.1155418965599159
0.02402716324908957	0.01945181811976697	-0.01418208857995075	-0.05581573483168911
0.03577250230573795	0.03356870288854273	-0.001328651682748578	-0.01689186675892091
0.0364950669776568	0.01746987742953066	-0.001362945941676321	-0.03582720017808202
0.02647621882068866	0.004394903967785655	-0.005153863999474129	-0.06659119561299208
0.01365833909982312	-0.0132374184021455	-0.02286517133357832	-0.06210133713468647
-0.00783493597247973	-0.03218964368321595	-0.02841276853100344	-0.04317499001019067
-0.01819363633211451	-0.03601296696098123	-0.002383676659281997	-0.006659478793177761
-0.007548637972437169	-0.01151909874692729	-0.007511769175190447	0.02330797165222882
0.01397800004076436	0.03222882247998358	-0.007967067094205877	0.06045406831332872
-0.003688909580581961	0.02566739561524229	0.0254500770033302	0.1455388484550395
-0.01556049161336307	0.007087713200688127	0.01996506224993668	0.07296895196383425
-0.000889924244716371	0.02683438864545417	-0.01428736500485022	0.06429120437433029
0.008851595965605761	0.04229589568061135	-0.01853786251768597	0.1550969758140547
0.005004062286801214	0.02609186156201731	-0.01827402871467995	0.1694877395005674
0.001404892471795572	-0.00305780581656619	-0.01903749572596425	0.1173446775937355
-0.009923287632376938	-0.02160009970905005	-0.01750610971399901	0.05906445555034022
-0.01326290689100637	-0.0422190308383131	-0.004212222548916261	-0.02754153580760854
-0.01975993215178524	-0.04332257419586899	0.0006953982049231752	-0.1390798238681411
-0.01580029151706544	-0.01579625235160805	0.004208326614333253	-0.1217388443907653
-0.01166050472660631	0.007941018960152776	0.01282733534881092	-0.05176068040435244
-0.01311059483726354	0.00449215544907249	0.003642959240971146	-0.02907835984823168
-0.009045370108399467	0.01987734614596921	0.01174811100389683	-0.02101022001434998
-0.009308231329533137	0.03420535588354234	0.01411196876610544	0.003174300599222686
0.002512100531844614	0.0556857164361416	0.01579519490622077	0.01289609853103917
0.01538523638709273	0.05672964541182104	0.02201111606397788	0.01748826278089901
0.01073965942282301	0.02718804698564364	0.02961015676651265	0.01097654918585085
0.00492453247432643	-0.005763740611907686	-0.0003830492627285863	-0.01264181631050142
0.007466000224661074	-0.03209270205542679	-0.04605785685575194	-0.007003376343346632
0.0002414746216205936	-0.04187406566136728	-0.05133252096957189	-0.02685850451384008
0.002339460891579644	-0.049738564542691	-0.03534753532274579	-0.04190442985994038
-0.0111809353860236	-0.05253655569461266	-0.02580329673269759	-0.01901730678984817
-0.02571173929033606	-0.04701373777696063	-0.01601692016343753	-0.009768091447554398
-0.01707021009068022	-0.03770927086122049	-0.04253710855202046	-0.02328599385100823
-0.01919280459276787	-0.02122881509872317	0.007672864227117423	-0.07743858458202778
-0.01808836393740394	-0.009185745139162536	0.04548372099862684	-0.09155948560664938
-0.01710946074077646	-0.01248641644870004	0.04462622096881375	-0.07817290330648725
-0.002677039998033084	-0.003410981103828306	0.009360395262376883	-0.03780155771551781
-0.0009861069863513433	-0.003730686363142094	-0.01270081505984628	0.02502063561804779
-0.009482120728193015	-0.0007570108570732143	-0.01421232711159496	0.0868854451863923
-0.01322342254355382	-0.01899935349335698	-0.007970118513286509	0.1422664773927343
-0.009269000154722486	-0.01949618550131787	0.01788747389575801	0.06390482964586502
-0.03726164504394174	-0.009883957052371758	0.05013241628347855	0.03377560869906784
-0.04428319571815128	-0.01687834705451803	0.04601144152875897	0.0627623272934832
-0.0007322935251972789	0.01187149783374775	0.0157028501926711	0.05553544624313798
0.01368515856808248	0.02333822495009653	-0.01205994233751708	0.003282727885317684
0.01205132477866558	0.02541310871684922	-0.01130849245342546	-0.04580042908195921
0.01272634579540225	0.0504356718342664	-0.01407181273675214	-0.05282700656928836
0.02776270352662381	0.08937960993399881	-0.06148728463438313	-0.09595448409666905
0.03243259519949721	0.07606651156352008	-0.05565504162055	-0.07665076965072418
0.01947217552827023	0.03358858161803065	-0.04664227309825675	-0.03594763183165069
0.01156873419705329	0.0087005923563269	-0.03634209530186491	-0.01949097472120379
0.009203046164956409	0.01209844290606794	0.009721078981505593	-0.01088242458894844
0.00443944835497791	0.009042634267005545	0.1019832027892078	-0.006684465586123461
0.01642385073447012	0.01242883660588356	0.07937870599712499	0.01825319742620601
0.02529060896169717	0.005903244009975902	0.0764782351522548	0.03140631341724053
-0.002188621951152102	-0.005135422222641963	0.04344937038487534	-0.01120605430842888
-0.03056052708884672	-0.02006899972742269	0.009603091035853913	-0.05360896400440238
-0.01167970425850077	-0.02561143516322236	0.01540998041885287	-0.03900154819964706
-0.0131233136593021	-0.02727226067117655	0.006785650012201181	-0.01467758586183864
-0.01824397153162141	-0.02269833998615259	0.00022716246476592	-0.002544400648851252
0.0007080891694851626	0.0149206727837866	0.002369107891977675	-0.009480053563544618
0.0006038184133174195	0.01696247351578102	-0.02218905938348475	0.04123068610213546
-0.009441368783439456	0.005274227822112293	-0.02452277661786702	0.1598655314272858
-0.01087605805578708	0.007186443149023488	-0.02650118542167892	0.09185626202385815
-0.004979630974357422	0.003644774495077322	-0.02670030294280572	0.07615318488531933
-0.01863382318357357	0.01833554216514324	0.003758160422446013	0.05917251599549393
-0.006269987530273631	-0.0005958155114853835	-0.002194797909667139	0.0233221028719576
0.003150767117092757	-0.0130562297497239	-0.01193105085621014	0.01926039759097736
0.01052873689370584	-0.02858473535735979	-0.008564342078995455	-0.01177343539744335
0.01172857920468197	-0.04670652829553872	0.01029846149322556	-0.03594105896902337
0.006898933583231247	-0.02985548934093857	-0.01369769078503281	-0.02933482553583621
0.01796360334457969	-0.0006553983806514101	0.00189868131937527	0.06903286803702702
0.0216446922346959	0.01958783241727233	-0.001395134440455258	0.1024551530553242
0.01644836253219563	0.02389495903032015	-0.01596871729735956	0.01492537524836291
0.007362045379822301	0.0350650874986604	-0.01136698946543643	-0.01520044185247612
-0.01228363503397488	0.008168422787921289	-0.009714165567012871	-0.003494350991934389
-0.005268680083825125	-0.002352836749313242	0.00310787358613983	-0.002745552797800372
0.01768727386155104	0.01504817362958063	-0.002133891094036695	-0.001583425836213947
0.01672876744854755	0.04011757024678447	-0.02031832512437479	-0.01381647693678421
-0.0005497347363183329	0.02047735265575764	-0.02588349327498414	0.001939594818961643
0.003519959468041614	-0.02156465842073527	0.002710767277624651	-0.001422556093152518
0.001166843374836072	-0.03836197179270851	0.004036077768277085	-0.00977072033232234
-0.003336753826869417	-0.01061752186219442	-0.006210335246771642	-0.0189029391303572
-0.0008192389173609016	0.01894212098266236	0.009425642155936534	-0.04881742174908962
0.01439360539369485	0.05809047795290601	0.01513220319330528	-0.0676961359234598
0.01473387436372896	0.08683457809731376	0.0100364218094158	-0.05933873163033038
0.009444826104352041	0.06096864854912644	-0.02129552069958204	-0.001163629237873057
-0.01620366274428976	0.02900070048152276	-0.008503367351449988	0.006926038394003729
-0.01898252504677092	0.01294570147906995	-0.00569401646757567	0.02105617425856946
-0.001506222877561227	-0.0120367455312134	-0.002094105595389383	0.007592183141072144
0.004221756106420522	-0.02701401420898395	-0.01834156887191309	-0.03280106936497075
0.006739159709405641	-0.05536400981522141	-0.01480708754973717	-0.04039663941996124
0.001895899585905028	-0.09066433382482796	0.008620413344558096	-0.04905173780704088
0.01165428272955957	-0.08888245326094818	0.02800662686488775	-0.05901956468282386
0.002571143099681086	-0.0701163879257263	0.009967121203439273	-0.02884891725455208
0.00321155785470605	-0.03986775624084687	0.01637722301211272	0.03916984968173576
0.01255561615294293	-0.03212276361711482	0.01488012193650288	0.0703713345118004
0.02322234659080774	-0.0456537092418144	0.000643171872271934	0.05825095571504246
0.02548510996908034	-0.04426734804627686	-0.00731959966791047	0.05460608378675622
0.00838331502958467	-0.05395867217152789	-0.008257827153216553	0.02676175000449054
-0.004649192727924803	-0.04232452936538782	-0.0030746023528955	-0.07562123764939398
-0.01304447930719588	-0.0135047787181591	-0.003206911889965181	-0.09610011465737184
-0.01182134154179279	0.02089674847167566	-0.001083775774358451	-0.08115057914739787
-0.01428034414760419	0.05117134235034609	0.0317101793687861	-0.02917854813555401
-0.01350744662287677	0.04551873724442205	0.03334799304179113	-0.02088302329388363
-0.003218301517192891	0.01762606241962621	0.006007358629871537	-0.07322043453774171
0.006424424785995328	0.01552467464471127	-0.01932685670052635	-0.09692766049146288
0.006153355267257855	0.02910384918371367	-0.0167952550527783	-0.090675873627201
-0.002395331490639252	0.03005967865006895	-0.01523348494050588	-0.05238729032576348
-0.006084160943024406	0.02843688079726894	-0.009221903847087242	0.065741467086148
-0.005128268140940415	0.03406804600950827	-0.0009174718299243356	0.1475069468536123
0.001042868874933797	0.01773183212531631	-0.001280311429072404	0.173251632534565
-0.004878069509896951	0.01728081891320885	-0.00696943362482707	0.1278499081687826
-0.0108412378872572	0.01939408928296812	-0.008899213112889026	0.005445725468275943
-0.0004105160879982424	0.02066801098578108	-0.01745700621416804	-0.07874183543906206
0.01123441805420807	0.01695726682503746	-0.0385754364891517	-0.1217146053581368
0.01490866846579479	0.01116578049091814	-0.02576572576092132	-0.09683024143313321
0.01941959442413281	-0.007389944871549816	-0.003249712603477724	-0.04542049055663718
0.01939474686057842	-0.01209788677112017	-0.008139328806960619	-0.005602014485285333
0.01300455771441427	-0.02127741304450076	0.002723611086395627	0.01395047667207284
0.002682867021513154	-0.03406233376246453	0.004953180454412412	0.01649944472829394
0.0100515030502228	-0.03039769814068169	0.005806499436496964	0.07580383090592979
0.01848493976669288	-0.0210917268037644	0.01369569976618842	0.08638670836629617
0.01151449973455463	-0.02261163892499116	0.03374291243059157	0.01473294473482053
-0.04051440337892938	-0.02110268736744514	0.03777246762058574	-0.05528713252583786
-0.03966682094902135	0.000577676109051095	0.03550672223624633	-0.1061139448657324
-0.01358654163776932	-0.002765978051561535	0.01683022355102303	-0.1565067252311634
-0.005561072581828403	0.001711136482340569	0.02023096045011775	-0.09476941959158784
-0.003726178881089036	-0.005105970678607828	0.02349656102362202	-0.05273666780955679
-0.002238221018216869	-0.02031399093446363	0.009987827077171788	0.09141968647893665
0.00191588620729803	-0.01886734596736224	0.01445492077867344	0.2611203624960813
0.006059121414451174	-0.01677253763899115	0.01260566752524618	0.155126086544861
0.002255600985032446	-0.01924300228536917	0.01051215480589946	0.08217126725607267
-0.01141931839002453	-0.01682945956530821	0.006534751588274872	0.07920768578851828
-0.0371952363461573	-0.003206073753212488	-0.00401428953490051	0.1550770075107112
-0.07545498506552419	0.005761225950816277	-0.01835499254009819	-0.00208016192127999
-0.04901751545206555	0.001264891207537243	-0.02024391016650575	-0.01167335705577895
-0.02559454380695959	0.001330202288240668	-0.02531828837287739	-0.01809177471270567
-0.02508450579016493	0.02259095439161082	-0.01344023390597047	-0.0174117792406734
-0.009181063318241927	0.05358208946331464	-0.004803800222473699	0.01414498062720987
-0.009212697931478208	0.04795875360122567	-0.01949896044851154	0.06098172553867392
-0.003742320315791863	0.0408015408775319	-0.01811545427288904	0.06264862280300362
-0.004261667941322209	0.03613211592825034	-0.007600888062439299	0.02882774371283267
-0.005768607173712732	0.02171282452897984	-0.01743217040555722	-0.01588114072256596
0.0173052511455801	0.01401245453853179	-0.01903049638445158	-0.1160073705942492
0.01735061323974798	-0.01116496868182267	0.01825739963205025	-0.1448132663747914
0.0219738491027378	-0.01944480806106553	-0.02174309628339674	-0.1289409760050395
0.01041993798954946	-0.02144918459404073	-0.0217686106512342	-0.09148852010557308
0.01182443615716516	0.004878835485856541	0.01565652149182258	0.01621788003171734
0.02422709305702864	0.02668651450217968	-0.006880234377590099	0.06896324624694336
0.0312651526702221	0.01162784713565935	-0.02871093048558013	0.06890885504913505
0.02885756739128518	0.002970589634675554	0.002038502194768491	0.07113298358156928
0.009805948484006757	0.003692628794328703	0.05000681317682087	-0.02406703495697214
0.007187818975773774	0.01291216302766553	0.03282692218756778	-0.02523711352691802
0.00197642804314696	0.02849162759710533	0.01675793742145733	-0.007188076499525825
-0.01680478771542378	0.02721628702192964	0.00364439510578588	0.004833008845802766
-0.02164437218260185	0.03855625616628545	-0.002440928633431584	0.01034192304346843
-0.03372873275505051	0.02980770519391463	-0.001007669939187263	0.0436801344448642
-0.02550850924817376	0.02985035255932595	0.009994663746104951	0.0134347980987634
-0.0295745484790334	0.01932016398305016	-0.01137788070722756	-0.03238018302170555
-0.01738066103825377	0.00137365950666529	-0.01179891484853617	-0.03535277996434444
0.01724955018148502	-0.02535114785286745	0.007556827721428351	0.07270230326045965
0.04708422120840351	-0.02404529450138639	0.01395908497999476	0.08042671004415224
0.04813863788468545	-0.006908924041250937	0.03687376071705122	0.02939509334868982
0.03749543531238655	-0.007410637372644094	0.04738801642243724	-0.07701232810421513
0.0312864964591048	-0.03030117116791047	0.04425642719307053	-0.1495446907168559
0.03372722245698397	-0.03174999403986801	0.03922353815886576	-0.1105035926931773
0.02996665695301216	-0.03857502347787951	0.00552601882502401	-0.07585367775398238
0.005952303795853623	-0.05054492772126111	-0.05361668443674471	0.01544911904914239
-0.01052971375786717	-0.06423855632231529	-0.07066221306907111	0.03069069771201994
-0.01945130303680465	-0.04862561553851727	-0.05612823827117856	0.03181162242385322
-0.02255872023344494	-0.04533717314849151	-0.05622454814597448	0.0395311009426861
-0.02034465586837265	-0.04281978056184067	-0.01930067710661441	0.01713551401536755
-0.02365568169035382	-0.04086871956174066	0.1074878312762263	0.0009884693362297524
-0.03363241727144041	-0.005675732131655476	0.09618215100633275	0.003373891171616429
-0.02033566596582468	0.05328565985606214	0.03746188400906492	0.0183355502252304
-0.002005581421403769	0.08065575666465741	0.007702023434689445	0.01640043410897511
0.004536737995065069	0.07393680858857643	-0.01439282130890826	0.01065243496105325
0.01263684957337212	-0.02130356300019974	-0.01910432338177162	0.007972267865278186
0.02358587108253906	-0.01111267200645564	-0.02430737033088684	-0.01261708043582465
0.01743020076326225	-0.001239072485543102	0.001081386510190491	0.02809605709742175
0.0005726800834020238	0.003726553864591978	-0.003705161730015999	-0.01098857820682746
0.03122524406298797	0.0615042184439618	-0.02091417461302462	-0.02117076439791837
0.02208055499769216	0.07630982111299492	-0.0170194130580337	0.05035098112274196
-0.005241434643883849	0.07420855611265166	-0.009148864799604511	0.1814051225120899
-0.01453190421230402	0.03077641761679546	-0.02787963794791925	0.07230544719993295
-0.01223417342561285	-0.004060611977590239	-0.02831733729417435	-0.03103902816110769
0.00114845298243098	-0.01235980273524241	-0.02044457752312129	-0.03251191762690132
0.004738101495790278	-0.01648327017967822	-0.004347284544369162	-0.03438593405909269
0.002960250322774737	-0.03261153302724702	-0.0007666516054432456	-0.05143929723819396
0.0119398161073104	-0.02804257267296787	-0.002993214377826244	-0.06074707040574004
0.01757588015670353	-0.01528876175463929	-0.01677819382683952	-0.06257020365568147
0.03737525003960699	0.009914662278690978	-0.02441053791326619	-0.06556016339063789
0.02856337248182922	0.005873213393865085	-0.02100455056918003	-0.04591524691447841
0.02354649005202822	-0.009764469302248835	0.001770418219319648	-0.04946656755740205
0.0300848522529223	-0.02012649753457306	0.01478769493175365	-0.04118828900048394
0.01701434666093282	-0.03283370037521659	-0.00436224891135779	0.005212892362439192
-0.001023711030687772	-0.03410372797948902	-0.02284827620493373	0.05336698188538089
-0.008997486034611885	-0.02474310362997271	-0.03378361266643481	0.1104181981782238
-0.01055529276862606	-0.01942541604481293	-0.03395889243393051	0.1098922114426011
-0.0456407796941227	-0.02529537847849828	0.004081310208665702	0.06460744214157822
-0.03258123092424908	-0.03273117332444203	0.02333422064295208	0.01294633662842348
-0.01836403515936486	-0.02934638444542558	0.02809062160805223	-0.06373992243659694
-0.02709726452240631	-0.03649118779686249	0.02468059645408566	-0.09060747430920306
-0.04455385529289812	-0.0332796532431169	0.007607615605968493	-0.1254218281198156
-0.01986766853161925	0.008426322938790521	-0.00183837005765924	-0.1349469678467065
-0.005874406698748395	0.05305628308824328	-0.01033953355922152	-0.1265271841714303
0.004983156244250617	0.04300997524763057	-0.03861984738399519	-0.06662970327992372
0.00213652660291456	0.02726366450452112	-0.0411529243417382	-0.05287353279960415
0.0007908431040548204	0.007950822149371832	-0.05939920615310493	-0.0417064608149401
0.01187427523954056	0.005036532405641027	-0.006308043613347327	-0.007745736552495854
0.00719992393353139	0.009391830010886369	0.02024563520974743	0.01099629209589565
0.005005074568094403	-0.01785683510093985	0.004850466012452396	0.02511116349770384
-0.003193522216832034	-0.03288479238230026	-0.01568606872959299	0.1001065280179194
0.001237500713822159	-0.0348770698377707	0.02647610745013129	0.03785566148151923
-0.0009234611108376225	-0.01649687340783326	0.03564570245879824	0.06095516211878876
0.0130914541807546	0.006612050048999652	0.0429263955311032	0.06629771371981961
0.003814776208925866	0.02649924666096503	0.03347283141289725	0.06422632553756186
-0.003697878564276624	0.04076572154400168	0.02324141873141458	0.05537394130754375
0.01292566873901777	0.05175440980110792	0.01229491380115996	0.02387844101258553
0.02020522212813179	0.03860939546105702	0.009240484934006397	0.04390590637107324
0.008682878385112341	0.009241614041025869	0.007603165997673628	0.1191815839139337
0.007930404577259369	0.01403228214656825	0.006928418202914679	0.1154935230994033
0.01138225302374598	0.02018752182447672	0.03346646915347072	0.07820677919612533
-0.009161832561385251	0.007964663911949381	0.03568048683111086	0.009009294623910495
-0.01091672694289226	-0.002159246538391011	0.01444733149564229	-0.08510494503859574
-0.005411564735802366	-0.008590755862555066	0.01348834438703526	-0.09227889474960732
-0.01649190607123981	-0.0164631304872512	0.003158473427034201	-0.06285487694184075
-0.03654045434584263	-0.02061237473718367	0.003885304857806107	-0.02253675649321249
-0.02371682672908204	-0.009990539689878309	0.01637173244056492	0.01032952816989799
-0.002581380424589399	0.01836888080036459	0.01287734932043313	0.008369622338015248
-0.001760508689313857	-9.278305915828275e-06	-0.02971670069770809	-0.007694396286522982
-0.00542174330109128	-0.0149703019609403	-0.04398834849574124	0.0004962671569579422
0.009711641060535835	-0.01409434260786557	-0.02127179460059173	0.03027813439848771
0.01364302840952699	-0.006710635107883435	-0.02581783485355838	0.008257365592336195
0.0008290827629849847	0.007799128080254581	-0.01231847758378971	-0.02703249937888068
-0.0129671939408589	0.006164366655022302	0.005754989383630797	-0.023865464470255
-0.03678535686684432	-0.006431964600351478	-0.0135330581903905	-0.0674248058973583
-0.02300395526659677	0.009091644611685434	-0.01118478684978039	-0.05787496382760558
-0.01053388856774875	-0.003710554356880656	0.02982960129173848	-0.01978807053930138
-0.00540264300618569	-0.02164926407172639	0.02769638637491709	0.01196525903363815
0.004098210640319452	-0.03702194184920504	0.02612455718969553	0.05348086589297343
0.005709045600786167	-0.04467963692965621	0.01593698837552876	0.05084776198434739
0.009972656958263834	-0.05804950689612329	-0.0148048070655431	0.02667734531958058
0.0006005169544875809	-0.04936280314619301	-0.03531229532635807	0.01503781650276823
0.002802658268102424	-0.02938730269269315	-0.02949556648663386	-0.0140833872826528
0.00700399652878713	0.02423071987294403	-0.002993529095560514	0.01333902841236816
0.01631432224061797	0.08145064615896279	0.01236923168641544	0.03745854659233188
0.005044006345998914	0.06540195610469776	0.002356637063441867	0.03903584357728691
-0.0008305477990795168	0.04675586579963055	0.006563202053947554	0.05812009510341843
-0.001835130090914764	0.03869672635201003	0.01687964628051493	0.1009075706371706
0.007643146665009291	0.02465067318290155	0.02066447585295826	0.01354619001287938
0.008768062807080252	0.02623382647225002	0.02297772786087355	-0.00288611868777745
-0.007979627222725775	0.005060061376249882	0.005556575481749646	-0.009196793252198928
-0.005992587421523184	-0.006871328215260998	-0.005762628162094991	-0.01352414096438185
0.003547579294357198	-0.008084446603514067	0.007650020783627354	-0.02809220598160391
-0.02117764471640379	-0.008851556725599214	0.01302153678789654	-0.04129639054277064
-0.04694922087164385	-0.002155561274861321	0.01302948923861658	-0.03087207199389581
-0.003539075621524099	0.0336815548510418	-0.0003081092123590572	-0.02465353166664308
0.002548833272558489	-0.0206418909592248	-0.03614970468547304	-0.04961330573270446
-0.004778599562510108	-0.01744689889536576	-0.04408072771961961	0.0001672465603218886
0.003936384836351121	0.005392029207898255	-0.02669494132447244	0.01786346983443401
0.01056078441266008	0.03164161293347749	-0.02212735558205538	-0.01462312331555119
0.003461420207401921	0.008996409071727468	-0.01661089921873253	-0.02165948091121593
0.005114567453724865	-0.006113523148217174	0.01905044793124807	0.0002608926759750003
0.009040244245562842	-0.00795704526829267	0.0331822359180544	0.006290139374319753
0.009560810481041107	-0.01865086346518596	0.0248645549224886	0.02176174195726262
0.01230457303788713	-0.0306207457535014	0.01306395598028206	0.008540534851476433
0.01422098297455775	-0.05099453777398175	-0.01272213379441298	-0.0352813909020404
0.008674580765135951	-0.05306108708286288	-0.02458285801720961	-0.0076777074727543
0.002231564310138633	-0.02351589476088193	0.002640415026468503	0.01879030045438642
0.009934970679388276	0.02659631316781748	0.0136111333552275	0.01145397403421357
0.02793920281955013	0.0649930656142283	0.01542300449014611	0.01555849241222112
0.03967673268416893	0.0833274635946885	0.007349701013809465	-0.02258561819702267
0.0003627156789996339	0.03234638993241499	9.763219925311461e-05	-0.05980408538645809
-0.008111401984144905	0.0008568056134470482	0.004470328347007291	-0.01946979298891667
-0.0004825123233688103	-0.008339935104859711	0.02229260692661228	0.1101222171756886
0.006623832489805624	-0.0126644760323303	-0.01545445558716625	0.1089465068184064
0.01087937089288896	-0.01774346272434366	-0.0588343648302613	0.04727760077682764
0.01169966543279396	-0.02440001627484896	-0.03659022771069783	-0.08274382039043113
0.01731441343118128	-0.02714457569567737	-0.05841793958288159	-0.2290719533989915
0.01332372747360669	-0.03644556840371226	-0.06641940782581977	-0.2502127628925839
0.001854311886246812	-0.04335149333783259	-0.05047889734587763	-0.1562348306608567
0.0003868875714445343	-0.0523832908423149	-0.01710360863674748	-0.05109326138644271
-0.03096394545940538	-0.06442471113919439	0.04673391188045287	0.009849223702186261
-0.03973033401379222	-0.05870168389950612	0.08689123782533399	0.02726646051807798
-0.001662774505136784	-0.02675128425539055	0.07818715953500682	0.03534770932509316
0.01230943724609188	0.02770490367457624	0.0271421103974264	0.03747860677904691
0.01214042964540688	0.06566765443910805	-0.004996712864170528	0.03867203691067947
0.01639213771860308	0.0756671570049678	-0.0008939965743535927	0.03662006769618034
0.009146370775239186	0.05371083122799818	0.02381373789370655	0.01850354971585463
0.0001812952407609082	0.0143617449882085	0.03162171078244644	0.01097293681589806
-0.009055950759404741	-0.0001640697425842985	0.02297327108703601	0.008507057964427521
-0.01708506192610813	-0.004884244237807453	0.01071452175950947	-0.01390050668765716
-0.01927911234474768	0.002718873391570746	0.0001907270049164005	-0.04883516752925401
-0.02669117038345091	0.009713263366726657	-0.001207516298136844	-0.05573797307897672
-0.01380730371893378	0.0008334376721061516	-0.01992464761807647	-0.047302533396338
0.00508502494993251	-0.007242331250386789	-0.01748573037135329	-0.07339589726397157
0.02184494154945322	-0.01726032636189757	-0.02015739164043242	-0.0711814669056995
0.02166712454932251	-0.03242931098121735	-0.002800792634047778	0.06865853023201678
0.01003961228455756	-0.04360961232969723	0.01351498691260246	0.1922614773318728
0.01413465719275694	-0.03308115173871037	0.001188369249031134	0.1712117560236887
0.00320911937679145	-0.0008671009869495696	-0.005936561540306159	0.1180923556314125
-0.01101125711046798	0.01647699901811255	0.004253916942294851	0.07644367227483544
-0.01854755572855044	0.04169649020490258	0.02862354272902861	0.007961923407633773
0.005879686917879632	0.1103375215577527	0.02607792568529033	-0.01997002569766405
-0.004870017331260975	0.0333619119195506	-0.002342419180468001	-0.02201517976083306
0.002516342059619243	0.007630948223492124	-0.03487889967521099	0.00846186327439772
0.01500093938714184	0.005188120566458354	-0.05036560250036429	0.05094032892342019
0.02302805946737102	-0.01407388051097501	-0.05371937802484859	0.1317745606962665
0.01998483117108279	-0.03287843975517812	-0.05934837010449041	0.04452777004115652
0.005757666325938019	-0.02130254529879866	-0.02306214984620643	-0.005264554901966564
-0.009377681996960754	0.005735732409217251	-0.008809936026427994	0.007089431878896052
-0.027903102576167	0.03833272361643043	0.03433576547197933	0.03431025512750906
-0.03701756411571425	0.04880426883433565	0.05919110360466179	0.03973269607618724
-0.007147981386247623	0.05286389365884178	0.026954607467436	0.02143927825115032
-0.005594479763103679	0.02417152292418004	0.01412559900512047	0.008571220198682492
-0.01571885915373703	-0.003513708300902019	0.00603288358678482	-0.01925577709987892
-0.01717116751415385	-0.01297884739333532	0.008761123893426802	-0.01686963901556351
-0.02548304197214125	-0.0179892963786591	-0.02052495474606416	-0.008157126766962465
-0.02842822159260202	-0.01193205904134982	-0.03620061848530642	-0.02757105754294548
-0.01025272837668843	-0.002987499886117164	-0.04488802753262051	-0.03619671176138872
0.004476920001201736	-0.001150502569735611	-0.05197695324140255	-0.02929760352842712
0.01544116709007241	0.004679214180949672	-0.02217398884510787	-0.01957114116430612
0.02527524598647729	0.01073922174322547	0.009110364319578413	-0.03922112181361562
0.0365240418463398	0.0001175421389043102	0.01843795071661759	-0.01635503794024452
0.05446132703636571	-0.007256755334021118	0.01674432276978931	0.08746338138149223
0.04996667088034942	-0.02420106682564561	0.03753196492941613	0.06570574321759669
0.03448224492640354	-0.04159049740447879	0.04530295317108824	0.04011757614945553
0.03627869210360587	-0.05883182142677716	0.04304085092478036	0.02631995186583256
0.02372728393745028	-0.07053083959704683	0.03814020644142197	0.008230849789692849
0.001527713052628231	-0.0725000799857297	0.02012442002479318	-0.05038750513685817
-0.03119853860976873	-0.05326846301971359	0.02150644642782807	-0.06106355074794146
-0.07352995154261485	-0.02245504462967588	0.01082969786856212	-0.07126294737735772
-0.07944066209949854	-0.02472263246491	-0.008660600402488854	-0.0849651723849472
-0.05496440127158578	0.01278758453503284	-0.02354224651683559	-0.1178262031249674
-0.02273679482976158	0.0716202029683343	-0.04269318788613473	-0.08867740393204057
-0.02138302007192137	0.1119912624596451	-0.05086163571615643	-0.05672128368925339
0.001405561512894487	0.1044730882354207	-0.0242885514025261	-0.05343112160835881
0.001038988110603514	0.05841215157323381	0.008108633839654409	-0.02916889588151847
0.004991275342208541	0.02804824722680013	0.01141479047218806	0.04714421959061793
0.006033294811358024	0.008653913220405958	0.02882204835902626	0.1186941765813251
-0.01496376718433493	-0.01704124975753872	0.01893361898245378	0.1481037006722651
-0.03426023621769594	-0.02084728815564501	-0.007950268636956656	0.1095739126271441
-0.01943950959017734	-0.03527427191648839	-0.001106507362761649	0.06563131779486311
-0.01931042013964444	-0.04645735286763232	-0.0016069615304544	-0.01351038493020525
-0.03844519681500249	-0.04752750817925708	-0.0133303705834055	-0.1040118190083608
-0.02247091203250315	-0.01540301712479012	-0.01015170678251337	-0.1090872471590084
-0.004278270688239832	0.01674229271421109	-0.0136891176001623	-0.09424902589277814
2.683763830354092e-05	0.01503875443065951	-0.001119577652338461	-0.05772965448920184
0.002636350071906912	-0.003464766920107848	0.007020667092583369	-0.01833883876416446
0.005993392213593066	0.006424674851891555	-0.002827306266064164	-0.0139356571876598
0.001657046918674519	0.01410066089629667	0.009513728946949525	-0.01428959342703766
0.003231324970548065	0.01329108982733789	0.01286918990334491	-0.05817915723171367
0.01617669179380219	0.005950594311953685	-0.0005741248254675219	-0.09495193625738087
0.02066788788395432	-0.02084711123172402	0.002806711359202104	-0.09118574594649885
0.01715291092278741	-0.04459232853786128	0.0175944724201299	-0.07554083455621581
0.01144326549501127	-0.06244869386512565	0.000932815192407461	0.009835631250214515
0.001553057743326718	-0.07302654103146394	-0.005704279816804849	0.05176193404578409
-0.0005758279227220263	-0.06650317725625264	-0.01909236221653841	0.03842505623618692
0.0004140001041769601	-0.03538289012458243	-0.02691927443109261	0.05643172818340597
0.01530257260371685	0.03539865418443813	-0.001719280385360075	0.08183898693201595
0.02023453991967058	0.07088572242044172	0.003871196546717403	0.121384851793114
0.0290174039754465	0.08263623021621405	0.01932739605058157	0.1271312624830025
0.04145997431153871	0.08578744095040662	0.01404723739113022	0.06158511600565417
0.05627800689926476	0.06911407377368731	0.003318411789335437	-0.02565818570072951
0.06108189310161453	0.04907313590797973	-0.005040105223317194	-0.0628982864250022
0.06162867446507785	0.02126375854159961	0.0122575095328598	-0.1475667840478914
0.03904732376646189	-0.001925615346143335	-0.04636470637789469	-0.02232091431321468
0.0273750798881371	-0.002202026030625213	-0.02119172049015247	0.05057660117033932
0.0153868417646797	-0.05501158259848964	-0.01202583051219831	0.1344028518194577
0.0113859904317239	-0.06226948734549329	-0.01073880631283115	0.05076912774748287
-0.00308764646631076	-0.05566858055193175	0.02277946003624298	0.02552731558445347
-0.03928961744618758	-0.05964430803312561	0.03237243698309134	0.03247560344889866
-0.04658940942963365	-0.05110486281427586	0.02989346858428472	0.009952547551407016
-0.02540009857779553	-0.03353710318493747	0.009377931729947244	-0.02906080018195748
-0.01018158808442151	0.00255107318429735	0.008048612266962008	-0.04543522072026623
0.005906948171356475	0.06940497751477863	0.01379402924722056	-0.03820909358076858
0.01074440956640722	0.04431254956773351	-0.01341320802330085	-0.03717289230696595
0.001051282213077297	0.0003123143476565803	-0.008773442333990725	-0.01814531229589114
0.003920835830709142	0.002190132171067567	0.01961638687225406	0.002768642482370633
0.01302798933961099	-0.001541545381299072	0.02823097853065781	0.02078287113170314
0.005865352262137652	0.004042268754011625	0.005205494045994245	-0.02542976827270733
-0.009211169557858064	-0.003104516985349907	0.007227275137599984	-0.05532230501336551
-0.01731198050431036	0.001226004964420082	0.01596907060929597	-0.02974873426430833
-0.001664302858325619	0.006778399526721953	0.01750991520679686	0.05398626007020161
-0.005093712241792773	0.008550675641417232	-0.004370839432486338	0.02682416446572964
-0.01866721698851799	0.008302354530500983	-0.02477635522109418	0.04254288547596176
-0.0343723199052922	-0.002542232419832352	-0.02758513901480659	0.0523095015650072
-0.03303926465709133	-0.01418299790520894	-0.02542650978180578	0.0545799728894159
-0.04906458387077609	-0.02330164727841918	-0.02787731807828767	0.03952054295111954
-0.04439176217977982	-0.01479295398678887	-0.02294829550427156	0.03445780992050321
-0.01512862889595863	0.0007416585781690331	-0.00684175431709057	0.02232681766733
0.002646837482730079	0.02220938005415025	0.02741733672875577	-0.005197952096657969
0.01268048093530255	0.0413619183688279	0.01988486576408318	-0.01871758822535688
0.01310100106305629	0.01641917701297226	0.01101931982978997	-0.04054486581783105
0.006473975008458333	0.007057139333007038	0.01208119117661898	-0.04801738158640931
0.005124614124464816	0.00796651216999179	0.01281996495797509	-0.01926441813238532
0.00389197462223318	0.006088609454359755	0.01217154246836671	-0.004016090644431624
0.002728714580802311	-0.009461543762607163	-0.003310250955428556	0.0110683048072567
0.004982649741479622	-0.01363354285266165	-0.03697998906619065	-0.002895418916130348
0.002384411962519315	-0.004333087370563772	-0.0632343712890078	0.02687327828930089
-0.001348036237669357	-0.001261237310336487	-0.05593489408674772	0.1084753072683961
0.00140114241493598	-0.003898560491704776	-0.01239956586163319	0.07452138614031399
0.004822127488741378	-0.003219415019719911	0.01646861079858521	0.04343230463007079
0.0004885856369117395	0.01456490690957808	0.02885922623438956	0.06321000193679471
-0.007450799627586906	0.003402764552457337	0.02701308082205347	0.04253368902470196
-0.01562881786369507	-0.01515911868180541	0.02349578128353596	0.05357446020199229
-0.01468322979611176	-0.01121423520612569	0.0009018159339573845	0.03615999531113333
-0.003082295943630662	-0.01061641561272731	-0.002212844755692579	0.01170795735123784
0.01311429771285619	0.00397752117188415	0.002736739491667751	-0.05096534802963422
0.008626688537307073	0.01445295255754426	-0.02638422480273639	-0.0148615846435302
0.02243839323994521	0.02616049656871921	-0.01329294990030672	-0.07273822987763331
0.02620662028453234	0.03397849823819033	-0.0009265151327710261	-0.09152773879661552
0.01853466800590347	0.03517581734515341	0.02029476733078734	-0.1415868689616077
0.01671060885751812	0.04281073776216547	0.01642504401055546	-0.2180288449700716
0.02186789558324732	0.04951066756562855	-0.001461779797417578	-0.1860059800344741
-0.007523935323139594	0.0113839066865407	-0.00702155256209524	-0.1335703856602212
-0.03121036510925646	0.004478453058517158	0.02644170298279014	0.003991802642380337
-0.006637723588476809	0.000108624818752826	-0.004867568772917922	0.06952121993228322
-0.006091874762415643	-0.004486548626003849	0.005106032128132474	0.08279504727446797
-0.01495661653786973	-0.03097411327708407	0.01431327650838548	0.09243873658376747
-0.01880541361036529	-0.0435606917810449	0.004520829549565286	0.07582664104227478
-0.01731896200666712	-0.04303132323711574	-0.006937357187868035	0.1327911765042125
-0.009246583157647084	-0.04219344801650952	-0.00936653287997964	0.03833226856760915
-0.008686633590445577	-0.07094281282193796	-0.004255226641990946	-0.08861763886372886
-0.008563755406957968	-0.05676840487662274	-0.01529610146013238	-0.07443100449837349
0.01222529247441835	0.002237757458178283	-0.07060981085036502	-0.01091489847768478
0.024885587062499	0.03557141669281996	-0.04126954270087804	-0.008796791844944012
0.02030602370141208	0.02288189935803324	-0.03732279586717401	-0.02123656404029928
0.02496299277934134	0.01048506448211326	-0.02028802145665078	-0.01691239501003144
0.01328665969416809	-0.005243919235556349	0.04596731524319966	-0.004574741716168193
0.006892224086994396	-0.01968184197828091	0.1102436964616728	-0.0223930044957064
0.0009150850612082602	-0.00558780730487451	0.05825684511901882	-0.02121604906193411
-0.001463887286305896	0.01014295373280485	0.02568395693581898	-0.02522866264272929
-0.008937204187604707	0.009801143313652659	0.009746916548000431	-0.01962062904148122
-0.01558972658204837	0.01438429974196175	0.02306323001047177	-0.00913435393798755
-0.02231057468511439	-0.0009542358821224866	0.0551945464441091	0.02002400575410741
-0.02396662814043748	0.01394712784073965	0.04331556301980468	0.02054526430739641
-0.02780533085276628	0.01706446948297397	0.008907937747609493	0.03766283186907159
-0.03269013757029218	-0.008736200233579813	-0.02095278041768306	0.01795948727091409
-0.01879821228878558	-0.0002576417630068176	-0.03074872449364629	0.03864120585846052
-0.01054402436068083	0.001538555425734416	-0.03767682140606735	0.02246852106884841
0.004810418519143095	-0.009232312249855119	-0.02624476899429278	-0.004811346681243204
0.02333461289811906	0.007680710244008388	-0.004447238472676106	-0.02131471898832633
0.03361699866850013	0.01771502627374064	0.01960168401291518	0.003001132945365317
0.03812630348038445	0.04021574129928061	0.02059336053915811	0.09140956139401787
0.03457034955081805	0.02724590449220372	0.01774953811284918	0.08492914783232274
0.03122454557741464	0.004055638710847079	-0.01005570447481522	0.02796536756064033
0.03007378158696545	-0.0156762999193272	-0.03153292590059256	-0.01543918900651231
0.01923153094036747	-0.02219628851913381	-0.0441058748279434	-0.06990930096783457
0.01455047310410844	-0.02459297602884973	-0.04751008399588739	-0.0926934890971023
0.00657127583977413	-0.01351419110159706	-0.01506971883244327	-0.05466725142191627
-0.007712511823457785	-0.01116157246426134	0.01321789414924439	-0.02620313596173006
-0.0141732407689855	-0.002402622287752429	0.005476519444826082	-0.01235649007868671
-0.03984657403555294	-0.005287619570691603	0.0001013746340303417	0.08680739116385955
-0.03974307493779707	-0.001059441030518099	-0.006307285564656708	0.07612164926622537
-0.02991635156332645	0.007900476896672998	-0.0175877969234762	0.04494091648460504
-0.03092210656591518	-0.0001823288058780073	-0.03976958483004005	0.02111332879645926
-0.02692371539112139	-0.02390954828180488	-0.03861822903219476	0.02954845043123937
-0.01826243738025566	-0.02638957684503898	-0.03894039310049531	0.0367864567885284
-0.01266048408665476	-0.01685493537328962	-0.02241571048086698	-0.0008555524819486822
0.001086666420161819	-0.01849120811478044	0.01569671773903595	-0.005347779905694449
0.0021291677248552	-0.02363714142159183	0.02550054104057321	0.02397778776478989
0.003681276698687762	-0.01649660736849853	0.01524306427210332	-0.01279491897846482
0.003281070067195161	0.02135795657191146	-0.009845471148313191	-0.02262231184120478
0.01131368703698022	0.04552856097191187	-0.02011343984046431	-0.0303467736846236
0.02639716556379749	0.04346201310134112	-0.00220733926112459	-0.02483646304626476
0.02349701448907583	0.06477399013467472	0.001171522719331256	-0.03847558084509881
0.0290091745260242	0.06619742938195622	0.01255685955270425	-0.04497767114647486
0.03708937780621271	0.03865168725561884	-0.008797690876490254	0.0197257864222091
0.03607474927041738	0.01097241682950242	-0.01598796061250491	0.01450496282059987
0.02921098478422648	-0.0007181219986417307	-0.01468546068166685	0.0259352376993571
0.01817645931169333	-0.01898374820097594	0.03231678212531454	0.05960128176140531
0.006893085682871914	-0.03698350332351974	0.02615810863775441	0.024667703273748
1.908600333058997e-05	-0.05396914403215274	0.03287471600132889	0.06152093140669561
-0.008956815660154395	-0.06203695630476318	0.01950294250555466	0.1267731424846154
-0.005407734786100472	-0.04398437499698445	0.03101956526571469	0.1080979618244427
-0.03482480938517143	-0.02076359988926017	0.04353461631543205	0.03119352687412034
-0.0708617222435904	0.01616682709824632	0.02472226918679287	-0.06629482594835059
-0.05765417939580777	0.0260350767795414	0.02193989312479068	-0.1251704447696012
-0.00409116196514403	0.0009614201157104759	0.005622276028476082	-0.1879901495425422
0.007833550341893411	-0.02368568193369128	-0.01151620023692187	-0.1929764061262826
0.01497793333615601	-0.03669435947845406	-0.01901465169248137	-0.09449889478212738
0.003632412777044723	-0.02235905700342442	-0.03420176401266677	-0.043994016515338
-0.008270796990700387	-0.001354320748414478	-0.02517654414181194	0.00260905423764175
0.009008330651736819	0.02853645320265806	-0.00996299249816439	0.01288284669160138
0.01838391197802055	0.06042942313601803	-0.006179524288318104	0.03941881476019089
0.02222981789575262	0.03257402162536109	-0.02801718088215062	0.03912398659020686
-0.02974127810154649	0.00104566784736751	0.01013070595579702	0.09601190808751003
-0.04760296045288215	-0.01966169451072089	0.0375374530896443	0.1047729518712303
-0.02744736448688227	-0.02993339093703443	-0.005604492525577099	0.02660473710211683
0.002118821607109884	-0.02712124399990491	0.0178054381276722	-0.01068412823847422
0.01233047397357283	-0.02557034010789516	0.01182057421574885	-0.03268439408744637
-0.008522351661462266	-0.03608458347655076	0.0003570514279022275	-0.1515500762945874
-0.01487569944604583	-0.0417700696444641	-0.001296300909126968	-0.1501846130900722
-0.007570736392315696	-0.05187337569883924	-0.01163781983209048	-0.0404565205072801
-0.00606298198289741	-0.02646289471722365	0.02107544353557407	-0.006844577278942318
0.008072812962704252	0.05358013723022725	0.03206829498001983	-0.06923935582434779
0.02123330956464681	0.09570882193460374	0.0231754118862631	-0.0215316577415428
0.02839051358859497	0.110121694531636	0.0179256476518588	-0.004962040482471858
0.02100905676822539	0.1003009510093855	0.008389540985563843	-0.0260343725324466
-0.005081611227366491	0.05384134812849008	-0.003750064960205577	-0.007543324394506138
-0.01006814763641239	0.007276897388752166	-0.004137855402237114	0.1046631479063507
0.0109849333813378	-0.01467683206557429	-0.01189020339964587	0.2329295055890348
0.01240205182099198	-0.02320677290980273	-0.01043962459904667	0.1244384547661829
0.01749315464163623	-0.02522777678112141	-0.01930937855543149	0.06109841367731771
0.01374242873182985	-0.01231623189370108	-0.02423393943039701	0.06859755800622497
0.01264111609010541	-0.006184627452223499	-0.01268813804177039	0.06318189061452277
-0.01686867199918043	-0.02791381123008018	-0.03798066390567491	0.0409199860897475
-0.01268384980384106	-0.03236240058916318	-0.04366456046535299	0.03151400885306407
-0.006960269635704014	-0.03586705186400995	0.00941270014685382	0.03436241362979933
-0.01259474618689225	-0.03256844395745986	0.01433134415472335	0.01603285993973964
-0.005045865304219918	-0.05501914960255944	0.004066979931157984	-0.003211555660563036
0.004518775366215233	-0.04610443717601796	-0.002028505855537283	-0.04181145242573147
0.003126841723132002	-0.02744717183245361	-0.01717903076505126	-0.04401974767873636
0.01826492228626771	-0.01140443842920717	-0.006096478647186709	-0.02825264644439382
0.02918029451448257	0.01028767617671038	0.01118885293495659	-0.02863375017751255
0.04460290100785906	0.04923986905764163	0.02071956670411791	-0.01883975243851822
0.03651623884213909	0.04420831143318997	0.02133925609833583	0.001257418854009726
0.02580433712679777	0.06409532150913498	-0.001988914284154905	0.02166003420410742
0.01841399706383147	0.08165034377645429	-0.01195175329194208	0.01632089819284326
0.01163916050018471	0.05831158757371398	-0.01381805282027543	-0.01096481666050511
0.001595643358326252	0.0533348364457089	-0.01357678498055522	-0.01268005268925926
-0.01008410978682769	0.04156645073643628	0.02041479657454558	-0.01786895775011501
-0.02049844917356157	0.03321371407035941	0.05076903941404502	-0.02801453392424073
-0.02199169566150573	0.0199587058829749	0.04381230157743298	-0.03948740214323238
-0.0167834375323161	-0.002113845709930919	-9.343235266348268e-05	-0.05469314432822047
-0.01758798627031878	-0.008275686378187579	-0.01337859478700561	-0.01117546659532637
-0.0007107865714220173	0.001045420784297847	0.00577225868629038	0.1084148616556208
0.004153326179026643	-0.0211845562881672	0.02400817889224131	0.1028431415516196
0.004831038236177117	-0.03871212557878508	0.02103948635674568	0.07317964223543362
0.001060124812851934	-0.06057011986965041	-0.001270549492286892	0.03998802789857692
-0.001095826239451961	-0.05962697455878539	-0.01321382154962663	-0.01832834759483223
-0.004451354412569379	-0.05889288565963466	-0.02536222134858039	-0.06341037651164695
-0.003277890658926395	-0.05882521649933202	-0.03547840746842303	-0.07235591754253341
-0.01515913617709518	-0.05735581937335311	-0.04326999987901015	-0.05042208903012564
-0.01503204673191813	-0.05034720236757454	-0.008492754873138433	-0.03495952139640555
-0.002904367171688471	-0.04370643227942368	0.0150985702916115	-0.03329789605879105
-0.004407512609487155	-0.04596372254040976	0.002502987370981068	-0.03853891089562333
-0.008918012757451332	-0.02892694355794259	0.004945933969816355	-0.03446972179609858
0.006087831498038512	0.02424419532728843	0.008804823573132104	0.01760366956203442
0.005483207478794996	0.0303026519020999	-0.01088296721107195	-0.006280245487253863
-0.005460033125577578	-0.01780224511612669	-0.02695465487310057	-0.008743182222830272
-0.002920960439462103	-0.02928438533352205	-0.0100268170450039	-0.001639661987191036
0.002240718922189694	-0.003515335421857129	0.01035657023517999	-0.00244221662252678
-0.001193675390824353	0.04558108248668739	0.02707813739939056	-0.01755468982492677
-0.003749187338746517	0.05105181953198043	0.01727953539458619	-0.03198412182649324
0.001303544892107397	0.05558162723902547	-0.01690581634983875	-0.03027110539404548
-0.0006086695583339326	0.0583376974451509	0.01028027749771625	0.05321865698351485
-0.003034454891825755	0.08246199252599602	0.02177581774253283	0.1003205510391678
-3.775738384797987e-05	0.08292058534497236	0.0356550402616974	0.0549540335111022
-0.007194724194273735	0.04646167989580974	0.00740654973432967	-0.002108214132224618
0.0005811281922746929	0.02552882359919528	-0.002035085368913393	-0.1214370214118352
0.003823316340808582	0.02393248826635647	0.007225010558025424	-0.1767481757558059
0.004242500698277434	0.003931734742409274	-0.009222691553833547	-0.1430312582707789
0.003588091384960599	-0.02993135305828259	-0.01487852358153712	-0.07112821572741218
-0.0002191333245775109	-0.03595297994654122	-0.05372221025824368	0.01859096828839136
0.006078301867020718	-0.03899316873577895	-0.06894245709129125	0.05063067639057707
0.01043603166454821	-0.007740582806314357	-0.03518476287381956	0.1138708882836535
0.01906954516422526	0.02389189046398188	0.008907785315111882	0.1143010683793073
0.01426619450530225	0.02357890930265921	0.01593045391157243	0.07843212771753096
-0.01650524628831076	0.002455649580950803	0.02014441618240638	0.01749803074981328
-0.03917688866537251	-0.01124888909380036	0.03853735345134561	-0.05373628929275882
-0.03353890596298968	-0.01400926868543654	0.02847838419874119	-0.1112487615550122
-0.02150618869884639	-0.01406559941582114	-0.01184151667448066	-0.08149127688173184
-0.01308357563205223	-0.01694786210932879	-0.006712132834736852	-0.03568781662153956
-0.01941230653709172	-0.01263659181759172	-0.03303111032909915	0.0101009194808738
-0.01369499216931244	-0.0069456777274717	-0.01368305217767053	-0.06953968576780335
-0.01048721852754343	-0.01264340757656058	0.00268113761386423	-0.03327254829681879
-0.001054914760031416	-0.00151680061574775	0.004636019190978848	0.01986849216360979
0.0006659817039751944	-0.001802622941678471	0.007167182120527422	0.04496454601600653
0.002035868031456908	-0.02013196975342505	0.03976137369075168	0.06668403102858063
-0.00726259071848146	-0.03113613791642787	0.01907856152738837	0.008946613711210432
0.02152769390262815	-0.04072144297156353	0.003217999213978972	0.01585565926965229
0.02361811664397787	-0.0258100650110355	-0.006901161076530138	0.02311945491721136
0.006474481829382812	-0.04050174630639482	-0.003948299331146458	0.01898025161874513
-0.001009286233346968	-0.04689176274038062	0.005412845794532209	0.02833558568118768
0.002404620759167741	-0.03346874897904977	-0.002527325312056219	0.0306639943297232
0.01855557178688896	0.008687406259910421	-0.02087153214776896	0.02642709266716612
-0.0164732015898255	0.01308432400257859	-0.02307954033028582	0.03998019413258919
-0.0309668253237145	-0.008304421537219622	-0.01504495121059105	0.03712695330327325
-0.06282922866080623	-0.03718084205957007	-0.01743913784360936	0.02357534627709715
-0.08520496387201144	-0.03621935081708712	-0.01375202093723555	-0.0008682011452550936
-0.06165255275393954	-0.01917497528325945	-0.03661560937585223	0.01612298624245163
-0.04052641608838576	-0.02157237454825768	-0.03033993084678023	0.02468190095868748
-0.02056723114339526	-0.03837515809786871	-0.01421611843241163	0.02914486722405923
0.01675285194832827	-0.0082314757602375	0.01461975086203542	-0.001307807061127775
0.04158066454081029	0.03703547939079288	0.02224605701423089	-0.01621635306236995
0.05803376348663839	0.09258297884468973	0.04524455568455722	0.0001010574215729153
0.07350443116757135	0.08015806658361668	0.0406976902023712	0.006662161827276932
0.07036452485908004	0.04703726551831251	0.01825569442552512	0.03467336723348692
0.06254273070529534	0.0443929405536993	0.005276966651323313	0.09035277340047254
0.03736749685837105	0.05330323319543408	-0.01164787474999084	0.1422022467372754
0.02969575390112205	0.04715805638372741	0.0007125910503621296	0.08830573724422386
0.02068432701784435	0.02807385516309985	-0.01443428478922706	-0.04799366589784808
0.005626496313826933	0.02966154690484777	-0.0198522239673173	-0.1315440140499791
-0.00723090006979336	0.009849638409156579	-0.0005993201192021508	-0.1345052950676062
-0.0112617847206671	-0.004329613479117792	0.05007112707482348	-0.01831758301466639
-0.007535656535398555	-0.005592663668003308	0.05467277990981505	0.03618646639733537
0.00240876092200819	-0.0005272763666926224	0.04583451972107502	0.05892310285815855
0.01468718631026175	0.001963189971097181	0.009416318933417597	0.05143073193446866
0.01351072537110116	-0.005671801391527599	-0.004209411294806543	0.01839406382707556
0.01517728074365083	-0.02083201567643666	-0.03011081807809865	-0.05252394240684765
-0.03081931726755428	-0.03131698219635252	-0.04222640208359638	-0.03646793110136464
-0.03841418365326867	-0.03245899040237766	-0.03334627546330745	0.02873512974575788
-0.0118417006128156	-0.02221125274583705	0.02130853342875261	-0.008803682782171581
0.01236112465435658	0.002661600486864597	0.01547609240222068	-0.01785309602733363
0.02904540940189323	0.003524839241663656	-0.004714447011117645	-0.016140079846529
0.04610035891182911	-0.01956578181129115	0.02935621136953321	-0.009412482265960601
0.045380062998258	-0.04665270287765594	0.03960428301285224	0.0153647906311919
0.0164267200820782	-0.05043124921103301	0.02458661251982322	0.04382085096903852
-0.01388465188073896	-0.03859714614274212	-0.001627266192910308	0.06822931094543254
-0.00936607644265006	-0.03958253742387687	-0.01114798505643201	0.03435290895822597
-0.002828955639899077	-0.01268187278547519	-0.01809468791349911	-0.00609644754528163
-0.008568269909342036	0.001464507317283472	-0.03450807384255424	-0.08707469358954312
-0.02903759520682608	0.002421890771006815	-0.0352103041230606	-0.1269931360893757
-0.03361976820511667	0.003244638264941497	-0.0266962914568173	-0.1965576364548289
-0.02203183244106242	0.04375390059522902	-0.02144583261404318	-0.110567708779001
0.004070354786953838	0.06683564355157846	0.01459360958901772	-0.0365089736525438
0.003225634353979599	0.03340949477208995	0.02538472650304117	-0.02529586281787366
-0.006440435596723603	0.003313178951016423	0.03353560853005101	-0.002313709653308795
-0.03174871941355033	-0.03520263371711313	-0.003722568866814451	0.0815263773652256
-0.02871525223069795	-0.05139152925397423	-0.002208267833280758	0.01033636603716239
-0.01243257138753921	-0.05011198470184315	0.004455711003437899	0.02458010359435947
0.008773606676117898	-0.03188065145495948	-0.009872297454744265	0.1148126479900625
0.005321661017166321	-0.01660735614462353	-0.002193980206310652	0.08415744290959017
0.004097506877539201	0.0175875341688977	-0.01322552140639799	0.03845615063461132
0.02825548727410853	0.09290950873018011	-0.03760073507874662	0.004596754339053818
0.02148273751918049	0.1223786581627067	-0.02275306410894393	-0.01318883170857877
0.01803837836345304	0.1030610093998606	0.005081981944153918	-0.0225833770486805
0.01962221288620607	0.03040102905411553	0.01175505277405747	-0.01560657780175702
0.03073866242790902	-0.01566879266986635	0.01489303066961231	-0.009690394974424112
0.02462028645570997	-0.02741617940834439	0.01583644055168248	-0.01849723620017369
0.008063526283736645	-0.02424338255510588	0.03043810107099582	-0.05149524571346272
0.0005094519395416147	0.002603512245138877	0.009299435458161037	-0.06182068175888344
0.01806071083793046	0.03722997827437408	-0.01222871122810927	-0.05054826062619792
0.03782686750948638	0.09359641836746144	-0.0003150408118953717	-0.0155313618234237
0.02437476415606015	0.0979029171941475	-0.0006834323509039167	0.01739014655680608
0.005671281756593381	0.04508297980217971	-0.01485679598792854	0.01853103897992224
-0.02327902878091526	0.01977346349673976	-0.02087682437041933	0.002768055031473362
-0.03073839409001116	-0.00265798417557122	-0.008045482327507628	-0.007385706155260159
-0.02248029703010694	-0.012745379659947	-0.01185249260956137	0.01820130038797267
-0.02938985501024973	-0.01459291103479463	-0.01211327223289321	0.002579535644100022
-0.03180296227801693	-0.01891539473429601	0.02643997989415049	-0.005210589782750972
-0.0265971652576177	-0.03482343097049789	0.02746934047483051	0.01135624823563126
-0.02586703075093938	-0.05600838973447649	0.01207024317496481	0.02623759487206948
-0.02974212588717756	-0.06450219161097888	0.0006079715790939162	0.02500473421053772
-0.02256014659387574	-0.06422356100475493	-0.0285938663274609	0.01182062398804295
-0.03704293666417874	-0.07221347552868999	-0.0462049227264611	0.02051498897473389
-0.03974957854740892	-0.07161455730104092	-0.02479707108076284	0.03926607230362888
-0.02355863235040996	-0.03797284353017538	-0.02983812977652133	0.03491240376163995
-0.01866953261548358	-0.008235415622118455	-0.02577130284001393	0.01780603104321329
-0.01966506876299485	-0.01961413543052216	-0.006643995290965276	0.005278663226700562
-0.00369756817724708	0.002474710741835151	0.01413872340862955	-0.02892360680845101
0.00310453961798823	0.005739693851518443	-0.05260062703587592	-0.06545459397466738
0.009406701328696298	0.007121763096366079	-0.06398884737431929	-0.03550960989569278
-0.000882504881660441	-0.01594733715895908	-0.03249121788041809	0.04988563178053418
-0.001017008287229436	-0.02930677977294464	-0.001540197045346263	0.07706188215996905
-0.001189666981622473	-0.03357540161137663	0.02109724095171372	0.09266738259009891
0.02083496928249822	-0.03923488163934409	0.06107117790475624	0.07433326279502539
0.04501465114961373	-0.03564489272455045	0.174859437544797	-0.03342165625938184
0.03890514965847697	-0.04094368393920586	0.1275315289118062	-0.1020120396546588
0.03779935173530151	-0.03642553847737897	0.05553663772434517	-0.07745717611944518
0.03173919844940149	-0.01927347177757848	0.01579372172524783	0.0007421438255420393
0.03087719030645967	0.01793791466374609	0.01114858814791045	0.01677740877411047
0.01338535508514661	0.07481257875907893	0.01460870429778798	0.02863807034159605
0.004552400170931993	0.08030467806993552	0.03056184436388011	0.05242763392817004
-0.02218542267347513	0.0437995956266703	0.007105126962768583	-0.0003987445978942293
-0.05480535167229223	0.01450320325927826	-0.03215304858453517	-0.04538281793058109
-0.06633009508724771	0.006723827187956201	-0.04477451579503167	-0.05128274782259071
-0.0360560010114468	0.01864694731868413	-0.02379538546082627	0.003416413865326831
0.004160240422183864	0.03681811328386716	-0.01383950485359749	0.09976876102543647
0.01227437813274542	0.0353164851637618	-0.01192141994905821	0.02810064753267071
0.007302318033208247	0.02381460227178113	-0.00921994553734643	0.02777877770890002
0.004382622995554279	0.005905112994997683	-0.01753395270762024	0.04439403053679533
0.01026890147943949	0.003381240257154254	-0.01021498570539271	0.03163366043437491
0.006998752634241885	0.003294381642386367	-0.01201201154203675	0.03107461966436562
-0.005909776143272451	-0.009070398406252823	-0.02357083475914295	0.01074193616466112
-0.008917362090200758	-0.01933236000043296	-0.02298274962384844	-0.1017357505688965
-0.01763658718245589	-0.05756788345346087	-0.06794280943562923	-0.1049552237182512
-0.01602581586542626	-0.05918900664436984	-0.05753078614463139	-0.09145597805518921
-0.031884422122665	-0.06762010437576298	-0.04452804718133567	-0.09159589621150642
-0.03931912395006258	-0.05492257776147065	-0.02266361483900007	-0.05882258173221192
-0.01974109858598209	-0.01934432441747517	-0.003667289293998094	0.01384292587008459
0.03105699981806517	0.03988037813477963	0.0163320132100512	0.1169964371578952
0.034434856780318	0.05232122048497147	0.04351940482817941	0.04252370507516882
0.02071904350186828	0.04967211671157399	0.03672721260760203	0.01802493370749395
0.02160584990063462	0.03649037383487481	0.01085832554832891	0.02160543979321592
0.009370951970817977	0.02988276173667581	0.01749080027451406	0.03914488518226771
0.001115196811601234	0.0190965824441429	0.01084819274936857	0.04132068667793657
0.00342705819457617	0.0284073993122616	0.0222205966747439	0.03895542390378318
0.002147254350155258	0.0180096912143851	-0.002762111994083738	0.0306057921178405
-0.01253608841843144	0.007731837336748001	-0.02959371213399029	-0.0403262274846066
-0.04424543953741807	0.0134199343273104	-0.01612418734480029	-0.1185525961098524
0.0002869777288276286	0.02652743320915709	-0.01555054519551238	-0.1389628826202806
0.0127255131845475	0.05088149870234138	-0.02370339134760252	-0.1205400063713128
0.009432721558619968	0.0320518318073563	-0.02689822019684145	-0.05469938309807666
0.009367814930935343	0.01704876556789921	0.008546717324144099	-0.00624897060646809
0.01025153288815375	0.00311772368232056	0.01763150601379658	0.009162995897837979
0.01816961958634807	0.007877944527358691	0.01831588173595402	0.01774695726206684
0.02212683444599159	0.02129073473547601	0.04174623675376635	0.01069829185089379
0.03068308609387407	0.02458076380331389	0.02724400457285497	0.008731718727631455
0.03850113745138876	0.03980847048785387	0.009097188390836985	0.01625751119760229
0.03343503878018397	0.01290634045374187	0.02170890489562532	0.04459489073975002
0.0142301824381143	-0.0494873854241349	0.03490326745796044	0.05497227053793515
0.01272380785932899	-0.05482620145646018	0.01766038399010194	0.03796597991607794
0.009745465168489587	-0.07117820884452998	0.005118277742855359	0.02514592700278345
0.009867746118781618	-0.07216638275705219	0.01015271761991331	0.008285995932889008
0.01089160648447999	-0.06267937268598435	-0.009501095058723315	0.0005105886296805775
0.0259054603903733	-0.05658061820693427	-0.02175562240526359	0.00166459448145248
0.01618401849531665	-0.0449406919885694	-0.02844157975006531	0.008588688134933837
0.01095582466041621	-0.04290966899285761	-0.02190469890163135	0.006998337052372732
-0.0008421699204074901	-0.04347905399526682	-0.002594193134178619	0.01027994602698174
0.001885896881795463	0.007458677556967034	0.007398671777797361	0.009026973912826657
0.009682839355896629	0.068995599664296	0.01135523775125293	-0.002137401517552619
0.0307229183909847	0.1060039117467201	0.008576333638363139	0.005344796313162123
0.03016264170895405	0.1011024567078637	0.01722680106346083	0.01732095827665745
0.01817396226885477	0.05667172053244395	0.0001960063665964443	0.02517504095755285
0.01700224960283104	0.03374164012716244	-0.003840109370460831	0.02584733028170403
0.03566655633678785	0.03692696957111971	-0.01373817109179029	0.0167697374618893
0.03772814699318772	0.03985845500321904	-0.0326342879339695	-0.006097714317485535
0.05447194546891439	0.03452262354591898	-0.02435425868319957	-0.01833168589638964
0.04740574380988142	0.0002796919043533033	-0.01356689692752238	-0.0213938692238299
0.02757782986559631	-0.03550880991047209	-0.003041997460240314	0.01022986395789441
-0.0355667780477727	-0.04783767117423178	-0.0100344053225155	0.05419804657799119
-0.04096079412870365	-0.05384925777024165	0.01352880872536698	0.04399390884506829
-0.03022050045401322	-0.04601625960517503	0.0377788782698011	0.02369058967161767
-0.03349539224036915	-0.04605743992005119	0.01355854114996424	-0.0387330345906817
-0.09115085606445088	-0.04401091662231808	0.008037007779965768	-0.09460316127806757
-0.1216407612264747	-0.03493878997293834	-0.006338958909132076	-0.08872421902790849
-0.1154556994211261	-0.01552135244854142	-1.504245343403625e-05	-0.05509583572857532
-0.09279725215739759	-0.0233374269278714	0.002390514996636041	-0.01369480967041024
-0.05599026229686456	-0.03235393330294442	0.009651952104276454	-0.0004243339135525927
-0.03168440063494961	-0.03293945478741626	0.01822929040490286	0.02098120176124916
-0.01511721165272544	-0.03864280381688426	0.01656314485317803	0.01133214883651383
-0.01313219680637443	-0.048239414153931	0.01119998293175546	0.03094590259867759
-0.006567141135691368	-0.02864699080436206	0.02020393902165949	0.06511485400243211
-0.003590694668330742	-0.01829933091171706	0.02132559118954012	0.009158491352271278
-0.007998014734151111	-0.02216862641051025	0.003783310152348836	-0.03971869193189503
-0.008558868082201005	-0.01531716462559175	-0.003059333623993138	0.01386699355204384
0.005040008212951641	0.01113471469730308	-0.01321650443462732	0.03757873387017583
0.005722365754346235	0.04581854039013333	-0.05244979987607644	-0.0001159964394803059
-0.0009829657984136452	0.05902406467957184	-0.01963335500581331	0.03860902046287992
0.01121175523609067	0.03959328676322946	-0.01906008768349425	0.01442150204289366
0.01721267300831953	0.03604253595148234	-0.02290244357770176	-0.00826827854869476
0.01486178403783049	0.0388859881422467	0.006632669652662941	0.04741436867126148
0.01696508018590575	0.02487832928094692	0.002256956036904225	0.02691648993227544
0.01623645169457693	0.01864927208892527	0.004260372155112773	0.06483905110627611
0.007340766396296326	0.006052599692686569	0.004992190120078509	0.05754311962208056
0.01215500327661848	-0.01405999776240947	0.001703564197148651	0.0374286421824695
0.01211822713535175	-0.02053934087551502	-0.01482748899991014	0.02147129362679471
0.01264008626914288	-0.0458302580343883	-0.03549959734761263	-0.01439845401849081
0.003417287091482896	-0.05267300408368419	-0.048722683881969	-0.01609855472561
-0.02035413361868225	-0.03894009454098488	-0.05142003108515572	-0.06111663975504502
-0.02226387716865506	-0.01162835255447261	-0.04691164217206072	-0.1350741157309333
-0.0005696916760069817	0.03988861989240731	-0.01257606581884817	-0.1231131810455402
0.02271513844785051	0.06762501580433114	0.007034871103933372	-0.1078670394214245
0.0302815019703227	0.07636338806397015	0.003361833707959862	-0.08670349823064591
0.02811929001944555	0.06539334355852726	0.01749989022179879	-0.08456672647364805
0.03483470501625531	0.04004912113173515	0.06319218328828852	0.04971006347740439
0.03792352462108905	0.02728427805558288	0.04023421889156798	0.02717131509141976
0.0307724480490984	0.01732291891308423	0.03013511553866499	0.01880473439047071
0.02204366887285649	0.01349619944376816	-0.001885442675062287	0.03390668147483827
0.02111966053949524	0.001162670448299398	0.02177811846627001	0.1138352375648111
-0.0001047086936478447	-0.01669718619635651	0.03613416935933326	0.2307743491024132
-0.02101468444705638	-0.03631584753986318	-0.008096304379997997	0.1756647508067851
-0.02108156885356231	-0.04737261601247535	-0.007002882307285204	0.1282746792811797
-0.007823996059934741	-0.0420573766294761	0.001677940796006858	0.04382132915760333
0.008119002773083158	-0.01578271138991199	-0.04172458951075954	-0.03108076118007782
0.008252168632860667	0.02234225674418865	-0.04977558968085542	-0.1053771649984668
0.005908236429598425	0.005354460244238238	-0.03690702175980264	-0.1167023871720232
-0.002719904998582427	-0.03158392966357921	0.000423569917403358	-0.08266512328953567
-0.0004338200046051431	-0.02087945834863831	0.05747683388183368	-0.09054796687902483
0.003354360149779781	-0.00747459410379126	0.1117075816657743	-0.103145655882926
0.01480640342027866	0.02597541484658873	0.03504867701695494	-0.04727719133399339
0.016112300457729	0.03704085299189769	0.02339189651064352	-0.01021086974668477
0.006572326538924813	0.05020677206240017	0.0119952404687808	0.0004461638369284433
0.00923510476557448	0.06926397606075363	-0.02050147861676587	-0.004867618977764269
-0.002742141352298924	0.05893486049856195	-0.03345175976251037	-0.03622174593424946
-0.01789633960798725	0.04363022933078224	-0.006119539489328614	-0.06379169335653789
-0.005424227100863179	0.03598405163704307	-0.009423463607270718	-0.05940146132108894
-0.0008619347798904933	0.003190384941040397	-0.00712491470191679	-0.009768571411895782
-0.02302696725112474	-0.007814557566604778	0.003459028742681907	-0.02040242597438769
-0.01340932754501163	-0.02617331372806308	-0.005013773000885144	-0.01274826839945646
-0.005129702713276501	-0.06298095264462268	0.006564768499075582	0.02477238364172796
-0.02102527593621636	-0.06995941619241584	0.01581737134297607	0.02006744760544197
-0.02040097859209805	-0.06670349099770252	0.009012547992965329	-0.01744929458300705
-0.0136953948400103	-0.04798169729338686	-0.001573493272930676	0.01454406983729657
0.0009179722376731494	-0.03278038316519239	0.03146170965574929	0.1034340428617907
-0.00293402234082106	-0.05288407935837177	0.0579985362300351	0.1069502249380845
-0.01724072331469487	-0.06430521413069255	0.06254267756875409	0.05952742722791172
-0.01940479550876693	-0.03719318009505498	0.01158303665754125	-0.0371790037917997
-0.02273148385876897	-0.005205830711714617	-0.05488239086249603	-0.1350009156237089
-0.004259802741484976	0.1369727714929934	-0.06413710251865924	-0.1037558561026579
0.0275122274871318	0.1794975696584025	-0.04363636135091221	-0.0073881480483778
0.03973793693030686	0.1370570670564721	-0.02147509029289081	0.06400773357341122
0.02846372633048825	0.09393444497661273	-0.009121886106437263	0.07496626507052251
0.01911215051599885	0.04572292858363059	0.01173317029786971	0.07151960233427893
0.02181940084438822	0.02568626451511841	0.01737748332199295	0.05067194574941482
0.01470746380369231	-0.01031712648178709	-0.006760614526691721	0.0009452124067498185
-0.009672289721112273	-0.03206693746445802	-0.01499843876831549	-0.009115836777783251
-0.03913060811663176	-0.04526016794736987	-0.01034304976951746	-0.006905555444747026
-0.02892286529389079	-0.04617736670708132	-0.02187828578973939	0.02231177651910223
-0.02781521286696921	-0.0474620705313536	-0.02111722898011196	0.01848454382635968
-0.0110190709772285	-0.05195250763745343	-0.007136989562937071	-0.007933654302450887
0.005700976623192192	-0.05533587377783354	0.006068715012248808	-0.02334544336595209
0.001160765053219524	-0.06113783204129301	0.005148451685824208	-0.03146584282161679
-0.006048472234690959	-0.06815499463117501	-0.009799044921644729	-0.05684933567168365
-0.01534304626601559	-0.06855718731319572	-0.01736306422416071	-0.06376885797499209
-0.01634131156773768	-0.04759825123748922	-0.01084367128817054	-0.07993484710673737
-0.01051455840517393	-0.002357432285424416	0.00235169049964344	-0.04895203868559255
-0.0006555463221160066	0.02220370054393587	0.01613249973057232	-0.009057033822777462
0.01355451406750145	0.01334467007905985	0.02436372914669063	0.0484212671790658
0.02725823439852251	0.0005679075765238611	0.015650113558535	0.1227044271387235
0.02771821847724713	-0.01569919623973032	-0.002757850138266794	0.07154778741811861
0.01944593795668256	-0.03670892482172437	-0.02784922028130582	0.01994167199122871
0.03061985686182155	-0.02000879992987182	-0.02340662272978332	0.01412785241092047
0.05272474409250034	-0.006157444488902525	-0.02497030918618931	0.05266049796846636
0.05127439464094542	-0.002984668008338356	-0.008909614512944326	0.07572764305184432
0.03235903895455843	0.01086770423398248	-0.003278849090252663	0.07260939768427888
0.03314817280929513	0.02380288826803425	0.002805808260839346	0.1124210137569702
0.02814774889446518	0.01204478086346564	0.01555258703782061	0.1080445863758304
0.01696451374064061	-0.001382849665281143	0.001280389389309313	0.1754085943198701
0.0002893385221205567	-0.01722883570312935	-0.0168478388424299	0.1152163540683419
-0.0360824109314581	-0.008520393435791153	-0.009696681993105728	0.01123235060533349
-0.02383096588754349	-0.008490570885232033	0.01036165727798686	-0.08136694002185109
-0.03797539527069423	-0.01299035249758509	0.01590056676860878	-0.1002627805718867
-0.08799102314162843	-0.02065833838263012	0.001960429127624081	-0.1365784352913595
-0.09654133844653882	-0.02955979281795372	0.004126390797009809	-0.1012000463454067
-0.06501873690750953	-0.02039920803580022	0.01075574318630994	-0.07154234717838082
-0.04039010337818021	-0.01728746858755872	0.01424959046794097	-0.01011782963175548
-0.03464475148508148	-0.02001484955700059	0.01124103085410682	0.02028762816239513
-0.03848902708908526	-0.01650635821133284	0.01998696034649324	0.02039112442813834
-0.01631627767933038	-0.0005578315563360257	0.01829473879453314	0.003760964551740507
0.0007127024284345376	0.01164341523715923	0.005760763903014815	-0.05587652491928764
0.002597702737261624	0.01496113674873158	-0.01824832477802649	-0.1355408146779443
0.01136690560037331	0.05075895140219137	-0.02835091179173967	-0.1108956691470373
0.01067517951957483	0.07437235787360623	-0.02149490322149883	-0.04085926212340314
0.01722722437188413	0.0828558193299184	-0.01771082938414959	-0.00474262117767875
0.01431194454507348	0.06689960538523469	-0.01013213645024687	-0.004570801996639911
0.01180058139578357	0.02789723895778523	0.003157248233589043	-0.02478045323560448
0.001967862830285059	-0.004143463737369089	0.001983772261580073	-0.05408912303043147
-0.004434982648345047	-0.004616185351304634	0.006021923438246242	-0.07742695111183601
0.002072247704299907	-0.0145786851192403	0.006639819173689671	0.02398464337875453
0.02159572803613764	-0.02140453022977972	-0.0004582079591481575	-0.04925108504627048
0.02699368374084976	-0.02286857322076393	-0.01882676290264588	-0.08388673597359945
0.03319992655244705	-0.0245096624132505	-0.008388469229525795	-0.01791962944779322
0.0296720311128212	-0.01592446993446459	0.01432110903428202	0.01664406540246601
0.02759337368339802	0.003422201110976237	0.02799865259807314	0.0005563779373270298
0.03588123854077573	-0.0118131467418067	0.03226834728979146	-0.09138690056391903
0.02397724094631068	-0.005521738163740504	0.008402339278282423	-0.03205908085091367
0.01473833206187133	0.01593863954655059	0.01267270956313476	0.007657087115635105
0.02474126275436181	-0.01481756224905249	0.05315391164458052	-0.06099840740260255
0.02329672104131535	-0.004365678623702565	0.04135456210934538	-0.01286894709415705
0.01355590577314479	0.01070705943347831	0.01481346643176913	0.08413619101168431
0.006340050747758849	0.02015420980316139	-0.002406060952491169	0.104416700517009
-0.009039521926542907	0.05133645912891339	-0.03727802395544948	0.1004261065234549
-0.0185256877582669	0.0416574701724717	-0.05381412429521948	0.1260110760425613
-0.03172158386785874	0.03598950587707216	-0.04686153611245673	0.154772443964719
-0.05702224403857375	0.04356153883538845	-0.04070528438262229	0.1353094469185538
-0.04943303149355	0.02631199787651049	-0.1083951031156595	0.07672831845514216
-0.02814857625624023	0.009870190196191793	-0.1016279212198059	0.03925087214420053
-0.003156475705753177	0.006450687227018579	-0.05064157238409991	0.01364511449687518
0.02155663594912743	-0.01858763541593942	-0.02970903254870291	-0.002399935955477695
0.009613289361859213	-0.03571774591572829	0.03652316614648444	-0.006211873079886132
0.04236412945655076	-0.007014378890383388	0.1517433865477079	-0.00306499107585282
0.05261482462004211	0.01081854084357457	0.1188650605034068	-0.001097489659756851
0.06065141954552054	-0.008026339305518869	0.0870065064294346	-0.01536215777986073
0.05281097656564795	-0.0227285369343162	0.06733815883202456	-0.03802752097534428
0.03088387431890714	-0.02392015497231853	-0.01575157878583171	-0.07410095154167355
0.0362636615869595	0.003422841096594783	0.009954892131648779	-0.0288757770255794
0.02962369404794346	0.003816561622829979	0.03958645934428936	-0.02548670024539744
0.01554291630573093	-0.004173408333151102	0.03775599555191833	-0.03571952924038552
0.005785183629729708	0.03517296493015701	0.007773212408974208	0.00766219323550615
-0.0113707361366276	0.05101286141567463	0.002361559354387672	-0.07039370511850639
-0.01709320493012541	0.02740974028324844	0.02006833301532983	-0.115515108926363
-0.02160853359410199	-0.006336204700733318	0.005129365008864516	-0.07650997042121546
-0.02895787775263905	-0.04147291697370518	-0.03611268840639291	-0.01638108808738594
-0.0221657172900883	-0.02722465318470494	-0.05023553437077966	-8.58374256579431e-05
