-0.00873781109479032	-0.02036808574474516	-0.006305613723895368	-0.00968873649130526
-0.008934790647813535	-0.01422215636651856	-0.009863071440749882	-0.005474997437137038
-0.006954079474230339	-0.0116438366163702	-0.01136406894418513	-0.0109754466699603
-0.00543544876560124	-0.005225299554530855	-0.01016080947562767	-0.01049180210718575
-0.005369297962455681	0.00610246309575285	-0.01953033827273314	-0.0139746136986099
-0.001998372298849784	0.006191636367590962	-0.01974701732462796	-0.009182167407847415
-0.004158179359332471	0.01027980795841837	-0.01272611718803083	-0.003841846143881746
-0.004441018451644009	0.00795364329946038	-0.005411569262782756	0.0003358101384929136
-0.004700625981650857	0.01146292220421316	-0.001005571251811252	0.009036759269897693
-0.007982352819967963	0.01087762639126648	0.01393426628839052	0.01853346497237534
-0.005290420719402584	0.009648138666037876	0.02507972695718599	0.01838921119116918
-0.002340591103986787	0.001232162408054887	0.02498944195871932	0.01839582102216327
0.003551215623913036	0.0006726858048784022	0.02551048066160257	0.01382524713723079
0.004522930430737327	-0.009319797638592258	0.01624723945975391	0.008446242286164869
0.001338581614486462	-0.01817246961393183	0.009656557701394997	0.0014178930062737
0.004666245010711959	-0.01896041825340973	0.001835078447173751	-0.0008626913691818449
0.007108819345329456	-0.01774737803436699	-0.004515060324499443	-0.003303987897904803
0.003065282571776732	-0.01138531209936032	-0.008058272325829693	-0.002094149669832433
0.0001348222952042105	-0.001489654584521016	-0.01044924234365023	-0.008813029736305458
0.005867270444695286	-0.0007472104899255742	-0.01026479006197294	-0.008906056577813615
0.003033327514182835	0.008994330419956509	-0.01372616901994278	-0.01373516167010002
0.001982482050745071	0.006696400891782565	-0.01456945731190623	-0.01312492052677114
0.004695258532141935	0.01408735274803694	-0.019697300278346	-0.01121502520648763
-0.0008589010948544765	0.01433952814558855	-0.01517068959627546	-0.008228807219486831
0.002394895119277359	0.02062443851941186	-0.004113650838417211	-0.002841410161777135
0.00163485929916549	0.01994464196597424	-0.0005556361902165102	0.005446787497605908
0.001247817712225171	0.02413635360799484	0.01425321809421214	0.009223320040870528
0.001776880684545001	0.01986404176484259	0.03079485133052938	0.01561346914816622
0.000728793466169606	0.01414110630587785	0.02238009052926352	0.01494410443701043
0.004702737940000081	0.002687336719747299	0.02401459830777474	0.01100412019208569
0.0128050341454489	-0.002472325220342987	0.01452617678665708	0.007050092870237653
0.008120418024900192	-0.01016901110200211	0.009232396315553398	0.0002679046084325256
0.007429853458131902	-0.01519974631458906	0.001574760618162133	-0.001795429990809598
0.005421813891903014	-0.01855934840278782	0.001805107513030752	-0.005354009894575231
0.006797585405741292	-0.01298745244235578	-0.006510117748410702	-0.009172064553193757
0.006385607027074085	-0.007774582248928918	-0.01014178950669978	-0.01114755289402435
0.001681611755131018	-0.002855601747567261	-0.01224573367330159	-0.007817149452387599
0.0006798491320818415	0.000606638139815884	-0.01433993099528548	-0.007703652986680841
0.0003658904603655132	0.002917230722054663	-0.01705487518120465	-0.008330030227273393
-0.001994523698136947	0.005336186529972867	-0.02100073110949905	-0.01040455138076012
-0.004223103890414054	0.01159583919573065	-0.01479698089051691	-0.004517958309735137
-0.004587553824141642	0.01421755923940755	-0.00957685383732655	0.002322667922709417
-0.006063000697884629	0.01708288658401199	-0.001250553475973545	0.003093677902248028
-0.006021233132098205	0.01760949092937393	0.00834405792136881	0.01650707332390429
-0.004370631400530288	0.01508910443024763	0.01971340512856016	0.02191080307058915
-0.004660129061169584	0.009599058886185773	0.02325756655456464	0.01860384933536845
0.000117562592441263	0.00123932784417011	0.02719596103492846	0.01835096061029098
0.0005469766285099249	-0.006959876379012739	0.01709779787457583	0.01277976023362374
0.004051204874233837	-0.01623356566038193	0.006492248369160368	0.0007810650601801027
0.004901760480578219	-0.01599133562469963	0.00258298457409961	-0.003863078489215828
0.003244261165425788	-0.02225283305486745	-0.005573417433282084	-0.001520218541983819
0.007199235482328622	-0.01699689678803612	-0.007215680413079526	-0.01158308484129868
0.005930299706721882	-0.010903775372794	-0.01303965617969987	-0.01122148999046751
0.003569639328258858	-0.006820286590441857	-0.01158538305003869	-0.01187646635866727
0.002122864544134179	0.007238133570822701	-0.01792191323357493	-0.01129493724126342
-0.002580559343464677	0.01238759550908777	-0.02043139933704219	-0.01478379590386386
-0.00195086224716095	0.0114655269627125	-0.02265276620066514	-0.01875471037400417
-0.002415038768965709	0.01822075579724951	-0.01514638010398191	-0.01052856681807472
-0.003256495546118062	0.01993277185936563	-0.01006320367265006	-0.00319301658482094
-0.003706718786632663	0.0226724544644501	0.00285985707149089	0.00467933597295131
-0.004951654998241455	0.02263389714343968	0.01784837537833751	0.01470467777784008
-0.003645409946384875	0.01779836683133175	0.02372369555632755	0.01747498458464655
-0.00217721370009196	0.006499422856036363	0.02860508638067814	0.01624727907259618
0.003407452894076459	-0.0004804010955849931	0.02212998368979029	0.01523868039094358
0.002195993412009881	-0.01370571085024338	0.01584387785842943	0.01094952661765491
0.005411135460886015	-0.01659862486616053	0.01157047783483662	-0.001579305502751307
0.0008268935075931704	-0.02110236146403182	0.002179297838848166	-0.004658830618854118
-0.002007268978388975	-0.01990027993818314	-0.005722761812004045	-0.004680643751654992
-0.002905938472420737	-0.01719893119196981	-0.0100487729597645	-0.003635547940107952
-0.00585405054139628	-0.0119044691491958	-0.01317284434020922	-0.01159549852852784
-0.002611976930235296	-0.009569532180418904	-0.01862933048714166	-0.0101483439901972
-0.005869327772640771	-0.006936169003779776	-0.01946287627049046	-0.01411342334275888
-0.007235988096957742	-0.003253163571210274	-0.02634948272915216	-0.01341055213578646
-0.008027218913801148	-0.0007516272685167103	-0.0274400159625341	-0.01484100484738832
-0.007864811955596893	0.00301357314130636	-0.02154112763183649	-0.01033584623603846
-0.006354722889493893	0.007501336521968583	-0.01217190550748482	-0.005331097218543209
-0.003849630908677743	0.01103836228855785	-0.0001468239434490214	0.005668566660039952
-0.01381519963294497	0.00505884318569919	0.009884716464227757	0.01214442354065617
-0.005890779379764944	0.002426085208324097	0.02066267342165327	0.01926588443876205
-0.004333417196548533	-0.008158770858046423	0.02434618475165536	0.01657574202438575
0.0002770963951333048	-0.0123630274422046	0.02967075064058803	0.01479043846745329
0.00525233446907751	-0.02062298431345649	0.01654955600758497	0.004198657974244411
0.004018494685303024	-0.02580268662976498	0.0111611884130614	0.0007124881129530486
0.004504153513436807	-0.02601492471368213	0.003678925619844985	-0.002461202296764289
0.006265717138784475	-0.02269239040460165	-0.0005610160318357904	-0.00388491256503106
0.001614242822827505	-0.01219988442034095	-0.008246609211956635	-0.006546238588674889
0.001793659159350858	-0.003204932797418434	-0.01160246199357478	-0.01144093838425369
0.0008839265441572311	-0.0001145357936540151	-0.01127768227147369	-0.01265530953878754
0.002121214264120657	0.003730031799451082	-0.01462620133719889	-0.01090405168780986
-0.002618243258390455	0.008964019782543043	-0.01925374912738865	-0.01396307936152048
-0.001212204542299447	0.01075337125044389	-0.02416683739444326	-0.01667217148018354
-0.003349459524914426	0.01398669592054764	-0.01761039945980394	-0.01314501398098936
-0.004950258752135747	0.01864708113902659	-0.01295271972288216	-0.001624815810151572
-7.522094659007344e-05	0.02285997603843975	5.804682312460967e-05	0.004924852989993514
-0.003843905789172255	0.01800363700546863	0.01571344518302839	0.01621496908850713
0.00127855579842452	0.01486961397237717	0.02553252303472373	0.01864582564954491
-0.001390403330630021	0.009775888955362775	0.03058042593068275	0.02092026760756294
0.002197694193417365	0.001492173294111943	0.03083429740377784	0.02042551060281032
0.003661900773163439	-0.01179250480231664	0.02253123480556505	0.01012755031468647
0.005513100900684556	-0.01823820849630088	0.01640566953874988	0.006100535082779844
0.0023276117880609	-0.02198062446231555	0.004433378114876288	-0.001906664842484647
0.002088081839311967	-0.01802227212036929	-0.003243937989879092	-0.004772800831057151
-0.002039221353605175	-0.01480855694518035	-0.004509597582256037	-0.003763089653597926
0.001809409262741074	-0.005445915311788107	-0.01265074049073591	-0.007890400958017709
0.005747946823661448	0.001356645248064307	-0.01555883170807679	-0.007810888876174753
0.003162969394446898	0.007482426637757977	-0.01468747545715698	-0.006394872434019922
0.0006904140722509718	0.009769895717394344	-0.02166458982067383	-0.01273203526617691
0.005353782539701528	0.01270318194341377	-0.0200359764983718	-0.01086825797473833
0.00476030590778741	0.01599382035173319	-0.01967051327321236	-0.008643124309439009
0.001817692317720337	0.01726473996546489	-0.008037628728267406	0.001630610818822236
0.0004858531670510711	0.0227275953101181	-0.0002068930862654915	0.004970621968711673
0.001534582644742223	0.0158898121817728	0.02192787023413672	0.02509000634135248
0.001471248381499442	-0.01545663103195102	0.03024829455539736	0.02134965476895045
-0.001482001916832059	-0.005806075056523783	0.02830310119483346	0.02086722923868916
-0.003919877448228788	-0.00572502400313191	0.02817219037893151	0.01354635660078657
-0.001188681241374363	0.002485910977910225	0.01266533887328089	0.004193766784382058
-0.001098191291054556	0.006984162089264763	0.00558512056417539	-0.001728868986848456
-0.0004273991669363665	0.003685606775894038	-0.004822460151066067	-0.003963298805821262
0.001883142381077783	0.01392924106748574	-0.006246652167327748	-0.005846550906062247
0.001245528591539811	0.01686202435346905	-0.00850750873391961	-0.007870234763500929
0.00179585416654316	0.02066209986966933	-0.0138648980417501	-0.01069314453314791
0.005977971812111627	0.01362612777973941	-0.01139514806408062	-0.01280192201196583
0.008330445879356579	0.008255349449996735	-0.01841742828550771	-0.01043922209990592
0.007201651280788385	-0.002391927032184218	-0.02376194756070937	-0.01643271627709118
0.008189126333567937	-0.01056625440634329	-0.02101005532641826	-0.009048956568258054
0.01059168151138664	-0.01531047636381741	-0.008758072935740645	-0.0003773069499205697
0.01171574045877698	-0.01680010990997738	-0.001442801217283779	0.004831437921921214
0.004772761795941115	-0.01725136340266606	0.0100661420880848	0.0123609332641705
0.003891220144836673	-0.01458921283782046	0.0189406534017229	0.01914228362663337
-0.001868068418100264	-0.01121064659720153	0.02498312522032428	0.01984422929563814
-0.004482887329975575	-0.003058285577510972	0.02698477181522699	0.0178711882112751
-0.002917678031586614	0.003848483653479918	0.02587121627658534	0.01420830439701607
-0.001134537693043783	0.004938600779882269	0.01773119204932408	0.003009384538780024
-0.004250501620537579	0.003996165029606646	0.01009500197161294	-0.006767307381021064
-0.008000811001755545	0.01315565242217643	-0.001296610338468086	-0.008017741520313556
-0.004872548645617314	0.01860214351266972	-0.005823739124475264	-0.01094357755457437
-0.003065420171134136	0.01216567879627728	-0.01101517696150182	-0.01458979313236998
-3.339075651452762e-05	0.003545826920597057	-0.01253349411844405	-0.01146234107593978
-0.002935367646101277	-0.001023347860915398	-0.01063230741797775	-0.01248510103039581
-0.0001271759151883967	-0.01453623479136698	-0.02736803753667122	-0.01183967426936598
0.001634241125042949	-0.02249390805927209	-0.01062960934680133	-0.005214713647611657
-0.002046773133932703	-0.02442719324216534	0.00300586534244531	0.005925691498424869
-0.008073028653568048	-0.02708660189183272	0.01137766639771026	0.01595869575067267
-0.003894391668578369	-0.02501340654060873	0.01914551472025144	0.0154622683902591
-0.003558841967058558	-0.0168916680783583	0.01840994625815514	0.01240934439097215
-0.002599673045192479	-0.009470323002711055	0.01445877777456513	0.008172735809217522
-0.003179059392152631	-0.001440861077767048	0.004713453429992716	0.002013657783079162
-0.008992733233867395	0.001364695023206263	-0.004266587007154481	-0.003299967021463732
-0.004112129477116895	0.008319438693326865	-0.009218998684987392	-0.003809516307524051
-0.004177962151932818	0.01340193685715955	-0.01503417581256053	-0.009272288624568093
0.001796056069625721	0.01858748206682105	-0.01798311161598849	-0.0106016224825385
-0.003767005370845753	0.02151830867116433	-0.01768367545541198	-0.01356965580089891
-0.002605721254764766	0.02601001821207053	-0.02075635499667941	-0.01127941930610628
-0.001561988085928154	0.0240454456194561	-0.0283534337073679	-0.02209353786022514
0.003433009041541566	0.02095021379694593	-0.02302781186892667	-0.01354467792467438
0.005520347215449711	0.007983349178179925	-0.01781065249587539	-0.008630295947966883
0.005795922479171517	0.002588061819894903	-0.008711990566048744	-8.91655166967118e-05
0.00350776544141513	-0.01000014798373023	0.00388182169490152	0.01029639038708326
0.003252046866090696	-0.01692658167111419	0.01646369000309609	0.01636178548809744
0.005237227175751116	-0.01817125424772597	0.02291527234357846	0.01690276780915375
0.00174132984758621	-0.01635173924428492	0.02789942064768297	0.01568218993342656
0.003663844047862113	-0.01038371527534424	0.02686462950173344	0.01854850685532299
-0.001031017080226796	-0.003388625370512298	0.0163869719982083	0.003427853050033482
-0.001978729146235835	0.002677899526343154	0.004756440375780211	-0.002175736024743346
-0.00264883066874583	0.00308372696092841	-0.001281565354572493	-0.007397796888377981
-0.0008780413019692573	0.010451667597745	-0.006997076325635311	-0.008308265313189789
-0.002876283617506848	0.005581025573456808	-0.01265649195901773	-0.01050763493442797
-0.008488817879474753	0.002853827293089011	-0.01593575845554462	-0.01067989655412032
-0.006885125855136432	0.006295948787514239	-0.01303098056911809	-0.006909885799266921
-0.009311172288900417	0.008960473810894839	-0.01821494580449334	-0.009842786380959844
-0.00643001638960874	0.007970624006493909	-0.02141873899873849	-0.01093366187829554
-0.003453665499765954	0.005333134045715485	-0.02531329860312041	-0.01403468042988128
-0.002564503546005549	0.0005039534661593486	-0.01175127559905135	-0.004993575959741775
-0.004680312893429942	-0.007740073601736395	-0.002631265835560943	0.000425955725335714
-0.005141297900449515	-0.02614562961679699	0.009619707719797584	0.009508208536111068
0.002664203477388904	-0.02561344473185782	0.02082164767157343	0.01746673745662116
0.003288672609164591	-0.02425846843386888	0.02698696329625365	0.02028076013558087
0.004474382394206555	-0.01420584857355638	0.0293595919586818	0.01532531474318732
0.003755571434041352	-0.008926521277921373	0.02995462869062189	0.01612085971853008
0.003690931678349301	-0.001883926912547296	0.02139480379487113	0.007327921331746992
0.001613409302349203	0.002004097073169765	0.007027853931980741	0.001389901607738912
0.005766867168563283	0.009611736994025009	0.001875973733956642	-0.004576243685060752
0.0009709892802676253	0.01412384526959493	0.0002563160673613885	-0.003114609517246735
0.00296480976167159	0.01389613614181458	-0.004247220379217586	-0.009883969297845669
-0.00228403544499603	0.01380480525067098	-0.01088442806440131	-0.009588873201975982
-0.002456200640912186	0.02079127714625773	-0.012768370591669	-0.009788019293330849
-0.002180753962112196	0.02236638345603714	-0.01117898311713915	-0.01543011747892975
-0.0009335468994745824	0.01241996187986344	-0.02230023026555809	-0.01480127437199106
0.004633749151273884	0.006235968356562057	-0.01971541909734291	-0.01281938690719453
0.008111531642082472	-0.0008032671282020975	-0.01232082556685956	-0.005467151793691147
0.00275117415189588	-0.01076310935660838	-0.001357899743420001	0.0008921945465280711
0.005509682758851283	-0.01485552387726679	0.007873416592053243	0.0124809292191673
0.005059192014515289	-0.01948124294231203	0.02205936524887036	0.01710284682426739
0.003447482835500339	-0.0215603152024419	0.02426041835155248	0.02307365767519832
-0.002477509333660398	-0.01125551377376718	0.02460249744410141	0.01837512559219932
0.0002271403095468843	-0.0006556592026635132	0.03000907783133243	0.01661600592508425
7.311878366948808e-06	0.001471188159511619	0.01918609989828514	0.01445615611172718
0.003251877679912522	0.003920979721356405	0.008295246980286131	0.002157262038715571
-0.003663022450713527	0.007461983759182266	0.001809182916866995	-0.004205230685827142
0.0002480143569186621	0.01417493470473001	-0.00491913177345586	-0.007408048618650145
0.003196917982419022	0.01265606458282163	-0.01019962364589742	-0.008987195289593315
0.004735398552184077	0.01572383923523206	-0.01472841153271673	-0.009443263035356978
-0.003647908772591598	0.0190491777193787	-0.01486156735096829	-0.008790619892582592
-0.002044944584646607	0.0198813045082623	-0.01972525051558996	-0.01140455968844097
0.003877187292067751	0.01618873605968392	-0.02204279795843195	-0.01562895761310248
0.006149892030439276	0.0097063646241507	-0.02107329030890012	-0.01140319045549044
0.004963707732783849	4.464805942083052e-05	-0.01648488983524192	-0.01047073657820291
0.006278190357340035	-0.01176333065657388	-0.003678659900815245	0.00271547042371899
0.005458750140449315	-0.02031923825975001	0.01054609689580322	0.01350245712169446
0.004160226766529669	-0.01663892168265971	0.01631894696140267	0.01788136583839652
0.001959851260356732	-0.02004115173627334	0.02123999859561974	0.0221960392078027
0.002269446743847792	-0.01277915922475504	0.01851264423719095	0.02076206849472237
-0.001886469433100915	-0.008018380403396801	0.02201969939943718	0.01929146849084395
0.0004314773914273162	-0.003127730867534916	0.01383229070856933	0.00820497777191119
0.002406613845760738	-0.0008674250656626797	0.005318421981075479	0.001716345840695386
-0.00611101134765876	-0.0002967989284813447	-0.001293760883507192	-0.0007960404215045443
-0.003585851185526787	0.001273351358629939	-0.007486322221264914	-0.006079360922261596
-0.0007407889560772268	0.0006137070264750146	-0.01023508930906063	-0.009763218746999489
-0.003444040895933627	0.003384477312831594	-0.0124685358992717	-0.01264854394178686
-0.003215693976682131	0.008352250087633312	-0.01217916024052817	-0.01227666627681507
-0.009352255167316343	0.007970060747779952	-0.0216018535590344	-0.01427617473743248
-0.009329354505013857	0.002025841671938949	-0.0235525021840274	-0.0180140872215185
-0.007927321554492477	-0.004242195840498694	-0.02152558272336126	-0.009712352582048828
-0.001569508584808358	-0.008870136040296739	-0.01619442262639874	-0.005636514198478024
-0.002425913807492104	-0.01632909791488126	-0.01360859106293539	-0.000148909818074825
-0.002374504823331295	-0.02097079031370177	0.006054536763128939	0.01197628052008229
-0.005201734607946549	-0.02366555775948021	0.01694158491919106	0.02087080751759419
-0.007145663349440449	-0.02180596151333705	0.02818675936612484	0.01977438413515229
-0.001152251672365492	-0.01731843085255202	-0.0212117683529802	-0.0120519257514219
-0.003166162659027934	-0.01401401332526523	-0.007092241265929771	-0.006820674142306994
-0.007126376512916509	-0.0002830613080503886	0.0009963796814091339	-0.0008959523295220223
-0.001814999343564364	0.003517549199490039	0.01590858840241031	0.01001032985220385
-0.008399050175243934	0.01109893040112196	0.02173587876998015	0.01715312850370554
-0.008001003390224285	0.01404248094639668	0.02529715394501112	0.01283143377260224
0.001541391537290884	0.01821102572879209	0.02280571494959939	0.01043702835339859
-0.004707152675970095	0.01630379042536982	0.01793134502363683	0.0009048037982368915
-0.004331920167641268	0.02146729646709999	0.006057577218611391	-0.002544843690010991
-0.003421258358150988	0.02412523792494985	-0.002544754806832682	-0.005284110015056675
-0.00500172455322305	0.01810597204369351	-0.00417528659162889	-0.01118572468865815
0.001646984395558214	0.01262414844787861	-0.006111509912397145	-0.009175611282050699
0.00465193085252644	0.00574930370531703	-0.01371341767581651	-0.01093505319647994
0.004237088073148996	-0.003257607426738317	-0.01628100517875336	-0.01165301561444663
0.008372660467849718	-0.01319073482754827	-0.01377600589084608	-0.01107378127314905
0.007772401196884504	-0.01922536649947593	-0.02762440610537692	-0.01942150037301337
0.005660969276462848	-0.02186555245621916	-0.02159425552993055	-0.01717441954434562
0.007536878989939375	-0.01543999342033587	-0.01687688653798387	-0.01652599648885483
0.001921992867459621	-0.003983642187901187	-0.007707608739660808	-0.003997907751068282
0.007693522540505737	-0.0001197961765594838	0.001575861423586154	0.007352041664518559
0.00869401991401339	0.006048256808822239	0.01776357633893534	0.01468361797181467
0.006880804396945619	0.01202849374016795	0.02563730145862958	0.02220172531896527
0.004512653441885741	0.01298777230776038	0.02742235150252696	0.02279288466641626
0.003880078191286385	0.01495152038891537	0.02740918325194512	0.01740987068811694
0.005633316755102598	0.02107979705435524	0.01664439635925434	0.007383812039696295
-0.001481274205516883	0.02553128643506176	0.01204848204280081	-0.003305616521449322
0.004109646766304629	0.02322072291453428	0.004284044722010622	-0.007915542756476157
0.003405372494243478	0.02110375175067696	-0.002842292768274197	-0.01200749086227923
0.001127433761182591	0.01049731059759175	-0.01000623070415204	-0.01058753667363846
0.004513436675409902	0.0007923693066405797	-0.01320583227736966	-0.01136428087482754
0.003144124066258307	-0.008537169703184232	-0.01233655016277329	-0.0121693909030098
0.004794333805386431	-0.01669143349716333	-0.01969625384932781	-0.01638310966909262
0.002635408247276163	-0.0214924569322051	-0.02027500066035143	-0.01837337630639045
-0.0005215737888522201	-0.02049371491244833	-0.02741299033713287	-0.01608821606871109
-0.0009163410873295006	-0.01662915615179321	-0.01944351674853731	-0.01190861287981975
0.002410745775792883	-0.01185161279147755	-0.01211761620699891	-0.0005536705537967677
0.002301681233133162	-0.004845103537712327	-0.001600191851639467	0.005556131561414063
0.001771370984907915	-0.001939439272208634	0.01112110282334714	0.01391207025938515
-0.002595784687702733	0.001411553602245148	0.02147815092288464	0.01928303885808678
-0.002546398821120833	0.008856381404941514	0.02542504319191723	0.01906750146404321
0.002927826245560189	0.01340223306370283	0.03099711255651374	0.01964446112591395
-0.00116515751101064	0.01271202658078667	0.02671128452569253	0.01459348357756671
-0.004102158826200633	0.01338735790974859	0.01297974888801132	0.008137756830432868
-0.005707182223000052	0.01672321908457056	0.001446692369412973	0.004041740818427097
-5.553483128137066e-05	0.01243568409543463	-0.002522747320670813	-0.001170401646889297
0.0004468518475588782	0.0100134375747495	-0.00800345318892071	-0.005802874918561308
0.006265238530540186	-0.0007059186428241435	-0.008833429330710841	-0.0111575899810472
0.003818387278027005	-0.01330057853540233	-0.01587400843237553	-0.007843771336229172
0.002639984383795822	-0.01867805051285139	-0.01671342835329533	-0.01089914901208881
0.001507805308016704	-0.02757791082378714	-0.02301752315025302	-0.01441336336755199
-8.830414145446181e-05	-0.02837015423033213	-0.02173974981728193	-0.01020479107562843
-0.002955502336937785	-0.02609733078644273	-0.01998953193219092	-0.006648212366615353
-0.008132365833878396	-0.01922422588191881	-0.007383531074940334	0.0008742470821179137
-0.009532088342974107	-0.01094061566042112	0.001084848220977808	0.006230218342659421
-0.00870082075102932	-0.005049027433031062	0.01280648517256343	0.01553562191475133
-0.01008288355239386	0.004438204757842425	0.02457572697941595	0.0232125796572467
-0.01201162018295057	0.002291336021604096	0.03038568398821162	0.01799790611864068
-0.01299670056222614	0.008383545879706539	0.02578734475576278	0.01738289864682892
-0.01135019385782219	0.0110728063018618	0.01952678547605332	0.009514302689842886
-0.01158942800561774	0.01651242261519723	0.01660941126263948	0.0006784637272760114
-0.005693180407617533	0.02092020770176748	0.0005306173802345464	-0.003688063311398032
-0.0004561965607737093	0.02558795747945518	-0.004540096673630294	-0.005744530374124424
0.001913191362741061	0.01909139559185637	-0.004374938203902188	-0.00717421856914329
0.007214333624621427	0.01245568620286461	-0.007873106519954475	-0.006768544823567525
0.01233387265792653	-0.00041619252766687	-0.01614374425318451	-0.01118241223953751
0.01177513259291201	-0.01027708319529189	-0.01621816396082992	-0.009203656789358508
0.004515395407619706	-0.0136851174653714	-0.02504623968906497	-0.01236231968915762
0.005443965853301527	-0.01832021765494067	-0.02617115837960598	-0.0170338981802405
0.001933775921507444	-0.01753328919205685	-0.01709371409491999	-0.006471594963154468
0.00147283003531304	-0.01467540472401522	-0.01158118800341263	-0.005689355147901153
-0.001605946981154278	-0.01105352651050572	0.003219912095590263	0.008797316350001789
0.001628048918194261	-0.01497804975029974	0.01439300641031266	0.010057700046498
-0.005179950225254673	-0.01668831096429614	0.01953364567996503	0.01829550447251114
-0.00800727119468668	-0.01219599099251799	0.02849322637773614	0.01806853846148993
-0.005236080511487704	-0.002761360569582868	0.02639623014465053	0.01880077917736181
-0.006002840676233972	-0.001037537965975106	0.02245166171359016	0.008798684651823048
-0.001776526280094547	0.002794683276361484	0.01588602918571836	0.0006295661259528308
-0.003957696110559905	0.008277355185655706	0.004243301741231296	-0.003197879340963904
-3.176063327963753e-05	0.01447145254066465	0.000407697510717118	-0.0004155797578655027
-0.003699477423095976	0.0098441275483172	-0.0100802723750062	-0.003526537267163557
-0.002001958179533199	0.002680224729774178	-0.008036560468295572	-0.006104094719098717
-0.0002090699451353795	-0.004459782836994368	-0.01068192662438768	-0.00556784076595788
0.001895485871793211	-0.009755427895507244	-0.01264897059157965	-0.008161837695727812
0.005286007311129447	-0.01272507081892488	-0.02155845088663319	-0.01631417155834713
0.003974915411604872	-0.01294984024436949	-0.02356507619877721	-0.01318685803012311
0.007096903556182298	-0.01008746789772919	-0.02078731418861724	-0.01041434695878774
0.008071657942293402	-0.003683547514010417	-0.01408459427059649	-0.003510032610332985
0.007375483139481074	0.005036018943476471	-0.002421158177113389	0.005085880337233137
0.007433997730194136	0.01230940296854553	0.01085542349791527	0.01529678841646058
0.007423744243755527	0.01381424959072568	0.02180253998492183	0.01972298414565208
0.003348827012096199	0.01484732502924042	0.02720196713541501	0.01802645616074081
-0.002314833646744978	0.01506392836907609	0.02793384926207263	0.01937504446174374
0.003217035410081462	0.02097791367904825	0.02316396641154422	0.01425033814432367
-0.001381990155855162	0.02101047839521995	0.008718122995528972	0.001814205790357113
0.002823975004095961	0.02364375393368487	0.003976291527814674	-0.002638493525602954
-0.0003889646167575414	0.02435874555898304	-0.004984916506012196	-0.001825479116237906
0.004361002103408729	0.01652203339447312	-0.01091438553558612	-0.00671652928746774
0.001184988308165804	0.007550820662579765	-0.01107022082944466	-0.009766428688618618
0.003487646748430308	-0.005643426146028523	-0.01621179980303723	-0.01055853890591504
0.001226894188396781	-0.01416186496748212	-0.01613483674757735	-0.01402670118083458
0.003892006842268246	-0.02104447141930023	-0.02482428094745703	-0.01962946270137528
0.00166096181035618	-0.02496518781021465	-0.02389280949553003	-0.01563827427585237
0.0001294533298372094	-0.02330618473681171	-0.0213692041024773	-0.01376761832507416
-0.001530371975533085	-0.02226605284902029	-0.01677744249642565	-0.004216489477912089
-0.001483478850314882	-0.007179906606481749	-0.00425397638963529	-0.0001781101073839262
-0.001963531758113994	-0.00566544883969165	0.01475326448506629	0.01120315966570552
-0.00272248768822311	0.004679972441470632	0.02309515231745513	0.01349742074000461
-0.004810491758533665	0.004156205773841814	0.02621308889222246	0.01387827818621445
0.003000630146034186	0.005902487758703031	0.02933731614113402	0.01182920113252424
-0.001698658417507939	0.01198163774622239	0.02419588863413354	0.007354231576685626
-0.005225688153571621	0.0166576563295297	0.01288448901274665	0.001120295395073031
0.002195134246001367	0.0191450873934128	0.002950272126090512	-0.002251240769772479
-0.003742442287450613	0.01827335639249359	-0.002774994728024618	-0.008307100752144938
0.001486896519513417	0.01506238090552203	-0.007028689937570224	-0.009860678148155689
0.001507924404516912	0.01001377049413361	-0.01036490919993546	-0.006835797561527359
0.0001825799952284556	-0.00225121183428701	-0.01798143344226314	-0.007458166448045214
-0.002609702591077293	-0.0155945833406397	-0.01518550165403416	-0.009127673911978927
0.0001040498904886672	-0.02059712415413454	-0.01910488621904888	-0.01676868559524057
-0.001169006678857882	-0.02164106288725103	-0.02126376319318503	-0.01594178518062624
0.0004799802239593234	-0.01847762628369628	-0.0195142934544319	-0.009713249126928213
0.007009611710517583	-0.01082904245296088	-0.01105551045783803	-0.001308996515970734
0.006074036346997067	-0.003134172615488969	-0.002261170289807274	0.00554682475470264
0.0006539931402467214	0.001489686658123879	0.00861968957551496	0.01224863851544021
0.0005393460141682201	0.002719527893069295	0.017741788749209	0.01813007650725107
-0.00179445632097688	0.00129429458972869	0.03050872273397012	0.02098511759674476
-0.00331660118009782	0.003460835460897374	0.02708997601204942	0.01777455860455352
-0.003468984049505779	0.01009735675271716	0.02811275544905812	0.01557402924479967
-0.004091666345137961	0.01398663483674685	0.01560820357697042	0.006432781555643185
-0.005045292023261224	0.01883641315522542	0.007136821114074957	-0.0005912556602351112
-0.001172929628193486	0.01612647546382837	-0.001429637637631579	-0.005891457308482131
-0.004758273320778716	0.0124208176859662	-0.004784446787768314	-0.007549245323735862
-0.0008796864008746141	0.001092710507948937	-0.004785242114257958	-0.006157873594240089
-0.002377496662802903	-0.01223668680688444	-0.01629034414988426	-0.006553158200783582
-0.003843615066030356	-0.01079614411040348	-0.01294953659570384	-0.01117159054592519
-0.00206567403560272	-0.01983526897328009	-0.01769668939862567	-0.01207364840597001
-0.001490036717119425	-0.02150808441159125	-0.02657985569588807	-0.01679103652739191
-0.009768381969823856	-0.02145414180957298	-0.02022579410257783	-0.01299074364172101
-0.007369328648311866	-0.01588177286934506	-0.01432448688104854	-0.001344492710940903
-0.003690316066883153	-0.009528135280851556	-0.0001212915136657768	0.004070816671217213
-0.006971560907982055	-0.004364169065459827	0.01067534748276195	0.01222435472221572
-0.005461273948773731	-0.002126084457086781	0.022002488438518	0.0197828286618416
-0.003461816033793988	0.00479197316781556	0.02868181791730844	0.02429277283011511
-0.005926877980857242	0.009696148698343026	0.02529719673092921	0.01963364390430921
-0.0009962484957951679	0.01266569371516517	0.02034183459562044	0.01594802999959213
-8.562725300490424e-05	0.01283867949074713	0.01660056886111603	0.009165409769828875
-0.001848866084955452	0.01655073647884434	0.005595934311171435	0.001900795946580979
0.002967021406396094	0.01563899310538476	0.000888295697106455	-0.002180428828502516
0.001645822520783913	0.005273129548350086	-0.0132148269907424	-0.0136187592163853
0.001448259469248518	0.002458031167469264	-0.01329637156019242	-0.01262105587346104
0.009255115579729033	-0.01035500398898115	-0.01486519814845534	-0.01496975154123935
0.01189624410244262	-0.01460979336468822	-0.02404491377159759	-0.01669821144274944
0.01266486325074936	-0.01728105554948515	-0.02410763131246685	-0.019991907682335
0.008850784530794671	-0.0172759905221125	-0.02515353925296829	-0.01655701692402324
0.005292899876928715	-0.01488367907997623	-0.01579840218750057	-0.007531605441865944
0.005652551303179256	-0.009995989610111722	-0.008637497441075292	-0.002777921054145647
0.008086694241884367	0.0001008174953485096	0.005412599683101846	0.009387892857382323
0.001398374968454114	0.004417248180441026	0.01820897635389188	0.01639323545403122
0.003360376491755529	0.01059171627146211	0.02662450177610412	0.02176256364826962
-0.0006467812358886602	0.01366185141814739	0.02593592675061727	0.01760170719137741
-0.0003558817912887193	0.01811828584384626	0.01988037672930856	0.01561126565130677
-0.002052102700594071	0.02231184820814399	0.008955334862540167	0.00261746487321356
-0.004377175665732055	0.0255570681603411	0.004025146409363568	-0.0010235212571991
-0.006212888532707551	0.02129137600512505	-0.001626123135113686	-0.002610667420444092
-0.003781893854728571	0.01796937160576194	-0.008538942535775381	-0.005040315255030683
0.001043886377807195	0.009738384650622938	-0.006288708469792739	-0.009387826063163122
0.0008523950665098809	-0.0007860994806958871	-0.01343052833750675	-0.0102467866759372
3.083945437443756e-05	-0.0142936520521231	-0.01538891231229603	-0.004802495152488378
0.002379209140181332	-0.01877207588055839	-0.01739461123233151	-0.01295928604982189
0.001875457932712475	-0.01975374994249133	-0.02005614879611993	-0.01246059212325978
0.003266194977233179	-0.01853465448682419	-0.0203917648180027	-0.01306286703320763
0.001809703767676854	-0.01167915666826975	-0.01172022733952531	-0.007123565554034532
0.002967797216066677	-0.01092246923631541	-0.00277778664602179	0.001671288255534654
-0.000763974928707231	-0.007231100945654656	0.01066898602057882	0.01326127973913522
0.001332791217346471	-0.0001089055925936469	0.02007635080862117	0.02069410231192031
-0.0005334028434967328	0.004423694863798813	0.02405730619257201	0.02344293706477248
7.807124704340226e-06	0.008917767577166651	0.02550375248861986	0.02022192699397597
0.001549746015151968	0.01050944395763012	0.02819995119270419	0.01630134252329501
-0.002857566871607136	0.0133578624756632	0.01513218422196167	0.006884136774163627
-0.005515963201029877	0.02043075027502593	0.006934392354741797	-0.00135472766079389
-0.002763872835764051	0.02152331315961774	-0.0007940738654621544	-0.007393504572563441
0.0005400966281309397	0.01418652794896083	-0.004478821902560214	-0.006793550529467805
-0.001697345945352202	0.004421256278849381	-0.01081241590323039	-0.009963387024053359
0.003535606064895933	-0.001643532163615875	-0.01165311699462192	-0.008709108099150899
-9.047988649631188e-05	-0.0150408474100681	-0.009902198963375134	-0.01083645189388605
0.002607883123395708	-0.02314942840518414	-0.01154008386432467	-0.01131004236039251
0.003862661345274374	-0.02062394058046199	-0.01608827157823137	-0.014207099651585
-0.002277848807915176	-0.01290417604466153	-0.01755002267734853	-0.0151016948411799
0.001888432965880696	-0.007588427810747076	-0.01661395636065235	-0.007748623399321985
0.007658692793685768	-0.003484410191838158	-0.004754476426554661	-0.0003590585040530245
0.001780242753139686	0.004455724059650348	0.00546130901437693	0.006287655624460871
0.00132317435383456	0.01012843373015234	0.01780280474959008	0.01406718536106471
-0.002657058797211214	0.01078406027528351	0.02422798373716213	0.01899019805619503
-0.002253843635639507	0.01184912749316687	0.02891830121211902	0.01743172187966287
-0.002285200727725186	0.01314600017676566	0.0241325952731166	0.01232744635321899
-0.003881176904358582	0.01328480262801112	0.01566283925165132	0.003806572936771163
-0.005145065480710491	0.01296671063986343	0.0103662764538157	-0.001716245389723656
4.160555135233112e-05	0.008161783193890331	-0.002829338853432784	-0.001128120514829115
-0.000728505694031683	0.004009135309550655	-0.008830408142432399	-0.008816117249764551
0.002972881743898031	-0.00586138888975472	-0.01142264303193563	-0.009182005313585904
0.004024193043397423	-0.01275420990441886	-0.0132512782396415	-0.009335457986323282
0.004483957736668138	-0.02113087346635212	-0.01526337501739024	-0.01045828140882379
0.001737921215318777	-0.02574396177021085	-0.02132680036388946	-0.01820010870390249
0.006188919924816747	-0.02600551134548238	-0.02441774021050995	-0.02115264955788727
-0.003747292596499236	-0.008039933482372441	-0.02292131083464946	-0.01545696949899649
-0.008645948591184633	-0.0008209756219707835	-0.01492550560182826	-0.003515467048727032
-0.009959595921008538	0.001534200339331187	-0.005190851652557395	0.003373873802920737
-0.01116205531208193	0.008405031750151594	0.002182774891455349	0.0110628173049524
-0.003385860460060376	0.01383211240972803	0.01545423010199329	0.01862672227538295
-0.003352179510870074	0.01233149362766016	0.02211392136279129	0.023022745567889
-0.003954593129226776	0.005767995733195393	0.02741586756529479	0.01984806798206744
-0.001227128030194314	-0.005287307128354718	0.02737636132986569	0.01763056283728505
-0.001817714542118406	-0.01503422565505219	0.01611386107491289	0.007045245380795912
0.005677931554642546	-0.02581154363216825	0.0117057434467176	0.003421935383963264
0.003397903353951178	-0.02961195487922199	0.00263453126868954	-0.001674700714820648
-0.0007053347473975118	-0.02149304509193956	-0.000828447045335311	-0.006935260775889176
-0.0001574543679618344	-0.01738952989226145	-0.01146841520737404	-0.009509890290665715
-0.001309711459786977	-0.01523051920476724	-0.01092205303671907	-0.009341381794225872
-0.006867940286644618	-0.01017890768929126	-0.01347593269030155	-0.009269040583687374
-0.008834343300745931	-0.004916503415844421	-0.01519035453419407	-0.009656232424478491
-0.009799814881209757	-0.0008439559068492675	-0.02098993926264207	-0.01535927725901328
-0.008134107126525687	0.007395708530856736	-0.02092498036747923	-0.01555664834722037
-0.006885470416333144	0.01188522196267841	-0.01578158133377251	-0.004245233313461956
-0.006941796026855438	0.01396642995520876	-0.004354483042017187	0.002551909305494723
-0.005180348048106626	0.02135616795846428	0.003481492138541392	0.01115110004071526
0.001426123132658443	0.02759700498506524	0.0178922130646214	0.01869236837512376
0.003702338166409378	0.02275103971956955	0.02459830643589028	0.01640497170743021
0.006198964208180497	0.01898942244952586	0.02678518262304963	0.01707761490146913
0.006138017868266379	0.008871509803910117	0.02121397288864126	0.0179719614729996
0.0110403056884648	-0.004121764474311368	0.01609549837274848	0.002902264765337552
0.01446657130210267	-0.01637101356060896	0.01319831563629534	-0.0002962228799921698
0.01211700312085612	-0.01739713407757876	0.001255430417493533	-0.003820197820579432
0.00992860970396256	-0.01892902756398812	-0.007627331515089182	-0.007027180268467263
0.007256075321275503	-0.01816609202873046	-0.0113707233841147	-0.01230185197805856
0.002574202370553592	-0.0110518804414873	-0.009966547954402046	-0.009464076840762142
0.004733602568423066	-0.0003324947033748473	-0.01717164265858845	-0.01240729343835181
0.004507427288209928	0.005875553251034897	-0.01984240799519107	-0.01544534952315375
-0.001678055031738771	0.01307865174390291	-0.02226378747550365	-0.01635771461055668
-1.854756366637301e-05	0.01185187377216675	-0.02532719580935013	-0.01071263639061914
0.0003317508578642714	0.01346107704784007	-0.01896589652062609	-0.004986098158775806
-0.0006505122133071339	0.01532035339529889	-0.005889273527932141	0.0009518201213364157
-0.006439641589405062	0.02126580904665974	0.004062433245873289	0.009590103872775774
-0.003134460588099843	0.02002017573850624	0.01434841939709224	0.02062053062396359
-0.004860039000461771	0.01775815330506518	0.0250574161890491	0.02188034858712659
-0.00720982376270048	0.01290966099112701	0.02663682633946644	0.01608768847176846
-0.005807744632700652	0.004101436361339973	0.02355148184818649	0.01303607999181271
-0.00434395314462846	-0.009235054121936082	0.01693931537091036	0.00673200792755929
-0.005734604433710457	-0.01567497421636973	0.006763330236996583	-0.003152583863847644
-0.003588759039403239	-0.01826983350766838	-0.001278644504401195	-0.008523002222247313
-0.001921514913252982	-0.02169902788953915	-0.004274050742066796	-0.009424531319976375
-0.001024225756412553	-0.01890966394455352	-0.006276773589643381	-0.008911924841936916
-0.003063970330895937	-0.01102199683402466	-0.01523701701246162	-0.01080161270663737
0.002348070249797014	-0.004582126467959733	-0.01213469726707907	-0.005915343931952641
0.004420082191982131	0.0007333923091383718	-0.0152399947731767	-0.01055941625738368
0.00199309218382163	0.009530502664800898	-0.02185780972813815	-0.01226666203357899
0.003794887140803675	0.01320802568720794	-0.02278740952569567	-0.0164500726216356
0.003257141318224947	0.01483834347239915	-0.0211589451160428	-0.009587373373337347
0.006284845071538646	0.01705382655241391	-0.004350386873394692	-0.001049802694258516
0.005746833255639863	0.02111258246036198	0.002101904458868931	0.005306809288498918
0.003484547678684048	0.02527243687539673	0.01257865885037349	0.0119494673250083
0.002730597513308591	0.01856323826656048	0.0240935109560904	0.02254065691463817
0.003854055753364762	0.007769727558158011	0.02563169139600312	0.01912470679093239
0.006484963985126076	0.001941013050545149	0.02493988705252307	0.01530192270267393
0.006333307820148354	-0.009467517965754442	0.01803814615229191	0.01178388078461478
0.00463169852352653	-0.0187916430749827	0.007608729856198706	0.0003373236544781271
0.003385519084283383	-0.02014302305650495	0.003247547212411433	-0.001527733869532547
0.002805927179454539	-0.01435723479165183	-0.003781901539292218	-0.004259802598599953
0.002622043136332863	-0.01181098020119044	0.01058512699495327	0.002603490041857769
0.001962488285314062	-0.00206957119841075	0.001696893769180306	-0.002627397421396107
0.005614853303411404	0.000101948636918478	-0.002805930928084647	-0.005636897619269402
0.002432279236699924	0.003215929255011236	-0.0116558851531434	-0.005816653846127972
0.0009319684214616122	0.009935733539251533	-0.01405320859504759	-0.006601711043788892
-0.000141582915038814	0.003984243955558724	-0.01168384642842083	-0.01039798646026649
-0.004994198724428521	0.006655798829556882	-0.01575592066304599	-0.01133853870243298
-0.003831739092152763	0.01565290927095824	-0.02052919413076019	-0.01508306263056011
-0.004537385285149085	0.01548998319559127	-0.02788431495752026	-0.01445945198584637
-0.00220064185639288	0.01003688349415286	-0.01773794227603955	-0.01082487845776801
-0.003725241006802526	0.007607392493343685	-0.009394258719257415	-0.005395589989828286
0.001080605994977686	0.0009086316702251421	-0.001965769866356759	0.005612658362259968
0.004238512435933013	-0.0108207071967195	0.01386403730532278	0.01573017349654438
0.004333722392703458	-0.01950683249414984	0.0232833315246734	0.0204357012141256
0.003026679737613649	-0.01925693070362151	0.02745444967904947	0.01973100882767016
0.002041136843442843	-0.02574246331511938	0.02913267983214504	0.01626968209713165
0.001511907380926118	-0.02311399113136533	0.02450342697979593	0.00804013414197224
0.0006589585367669792	-0.01616108437697166	0.01358445038688179	-0.001382863881094124
-0.001069053678463089	-0.007903413421243821	0.004754607254593815	-0.003077595803704984
-0.004416987016333133	0.00273674157683444	-0.004202811240712731	-0.003450141437621383
-0.0001177229709554827	0.001424791583429048	-0.00796264564485406	-0.00580839482580507
-0.003936236428691938	0.002143721822472308	-0.01178945127770474	-0.008919297804236188
-0.0003035168386813377	0.009873511186183518	-0.016178788334481	-0.007363869392922121
-0.004737018520871017	0.007751514780999291	-0.01663473204031898	-0.009031632545743525
-0.01178254728593192	0.01263807995366151	-0.0206011402058934	-0.01368301154906418
-0.008972995900946787	0.01171999700679124	-0.02393536790399314	-0.01400269755196581
-0.01088678361321196	0.0127640915378906	-0.02003611567573185	-0.007187366435704587
-0.007053295531087849	0.01155828866946135	-0.01005249468704318	-0.0004382424016270485
-0.005568519685205153	0.002481053542500915	-0.0004894553386510287	0.009259838371366735
4.90506310238808e-05	-0.006941535203737299	0.01489950079897551	0.01845023926914662
-0.006230846414222642	-0.01508965686489562	0.02647666649460384	0.02351728506602821
-0.003433047404214558	-0.01908769706726034	0.02811421892906618	0.01764805528502711
0.0004120565660058437	-0.01840620473910731	0.02451575196076368	0.01595831086174274
0.00307888378129441	-0.01384554433588644	0.02076455886957992	0.005315938341646852
0.007768827556725463	-0.00169791190633913	0.008825755147575632	0.000220733057469367
0.004330512750001083	0.001393603820977053	0.005634408073376663	-0.003651406185732262
0.006654045182077748	0.0001729525798347119	-0.003452269552368013	-0.007061035818209533
0.01029537585106958	0.005621225776787701	-0.006110976256902433	-0.008535561415251214
0.00497287081537752	0.007692220554747367	-0.008659827067087797	-0.006906671231325167
0.0004295901668855502	0.007547780060384769	-0.00667714591471342	-0.006298602016835614
-0.006005443034067448	0.00699400423447584	-0.01684936184134471	-0.008804270652393476
-0.009178099440938057	0.005980134567489972	-0.0192610226236717	-0.01936938921493184
-0.01325169587252412	0.00853069004525157	-0.0195602250593653	-0.01782764066590131
-0.003826654018563132	0.008071232052238609	-0.02184476280822961	-0.007833490249899528
-0.00317225974462153	0.006585914028841642	-0.007927315960244846	2.17610016803709e-05
-0.0008593728718152015	-0.003852869420089957	0.002984739860193346	0.007272258251394827
-0.001885154789702796	-0.01092300798382577	0.01263173355227935	0.01457219996415697
0.004907326435916371	-0.01631706985161073	0.02606087031467418	0.0209416767685194
-0.0001044358249567899	-0.02290546786134385	0.02767330725066864	0.02038185581858705
-0.0001660398446473419	-0.02262175852018574	0.02869018000268242	0.01474811671158698
0.0006625392264449071	-0.01591558733791553	0.02180802936363108	0.01150980449051405
0.0003901839224643804	-0.01144381736768522	0.01798000569453297	0.004862807408303465
-0.0001810706803987147	-0.0009631702504098562	0.001736915018905885	-0.001604708719948342
0.001871235160289249	0.002130591235999448	-0.004954366010379418	-0.004263629484371738
0.002960415324803315	0.006579789932815473	-0.009555813785662073	-0.009832261601297566
0.001706379487379309	0.007159262581885852	-0.01097682759992196	-0.01235226428457341
0.0002382716604430238	0.01064323713314873	-0.01370766033770709	-0.01214861368412459
-0.0004848684657210437	0.01623026562604779	-0.01253304685369362	-0.01521539215404445
0.006941321288557416	0.02646264797080197	-0.02150492134747725	-0.01465396856586847
0.005064876567046171	0.02485022772853653	-0.0224437541979711	-0.01570313791718595
0.004630137061408509	0.02730927886945681	-0.02099092927676852	-0.01135084181248992
0.003985716801999877	0.01722538341975839	-0.0121378346405136	-0.0002933845910163456
0.005011028272493495	0.01184177779241702	-0.002568938393066039	0.000692196141546334
0.006576468847096995	0.002439236383255608	0.007852849658528808	0.01384156291325248
0.001446835566670695	-0.01104086209824648	0.02134436409175775	0.01833945155919105
0.0008244102681528536	-0.01706840865075829	0.02615245399466515	0.02478629674597849
-0.0001973033293911217	-0.01570186759588626	0.02232033875013932	0.01917370063566526
0.001785901152874633	-0.01823403783554808	0.01936735787954225	0.01210186832130981
-0.007563890761224231	-0.01889044911682635	0.01400938611384812	0.002680865351031389
-0.006811479297576742	-0.01149670251176037	0.004196959388915373	-0.0007127019606634054
-0.003945506764733674	-0.009931795460995702	-0.00209017703444514	-0.003802845860995154
-0.004814732282073589	-0.007319835012196277	-0.008466269094505778	-0.007983184699557467
-0.00558122876572672	0.002817547864031609	-0.01919305911859902	-0.01066980333852193
-0.005061932799812676	0.003941662943115597	-0.0115111366349905	-0.01031901071584216
-0.006138199991187639	0.009221743687169404	-0.0151898138046509	-0.00838445072649723
-0.004077874745131112	0.01316161644690089	0.01445756329043963	0.01638256181348653
0.002001444197483715	0.01378750099422452	0.01456675091612819	0.01104054905580528
-0.0001995459791399444	0.01776061061738162	0.01249129005372981	0.004370173646774634
-0.0001021574349728184	0.007740121743323712	0.001722376042110615	-0.001063915037912996
0.002892277376782883	0.00314666957986779	-0.003932324693784846	-0.00912757677808973
0.003184212071549814	-0.001451528786677632	-0.009078675370287103	-0.009047530122900736
0.002584628902452953	-0.008745502030930016	-0.015477390538883	-0.0076202772562639
0.0003543917776787349	-0.01493654469578049	-0.01859666068138125	-0.0071169976326245
-0.007250488566553993	-0.0201159923953042	-0.01618692979769708	-0.009967001843016333
-0.002167789074673388	-0.01161767028795299	-0.02090931043099492	-0.01150934083939772
0.003313506015186441	-0.00909233148507323	-0.02258761047946329	-0.01733294464736078
-0.001676380527291114	-0.001704434974070228	-0.02728937695911573	-0.01555147461890297
0.001594688708518856	0.005833330676322868	-0.01986733379000582	-0.01221382360415799
0.001857990962764664	0.005447485938602249	-0.01485771997268139	-0.005853060447679647
0.0003379797986962412	0.007343293078153216	-0.004152170919768207	0.004921907067309956
-0.0005177080412431121	0.01040873474115094	0.009080353937789954	0.01597729700843843
-0.002595279798161174	0.01380291955411176	0.01777910340247471	0.02168119561428461
-0.00148334808652488	0.0138390398188123	0.03083819858165009	0.02420567957337811
-0.0006480423426657681	0.01316841428538633	0.03200283432606586	0.0192748273660814
-0.001077748782408933	0.0110113853565464	0.02429112303926126	0.01859736261327288
0.003761111931546888	0.002542045155460632	0.0200473749344677	0.003065747005438912
0.005005156668898971	-0.009148340332237085	0.01032259154013466	-0.0005962944883518589
0.002705157032871435	-0.01074755572333044	0.001384263058962699	-0.006033175518860985
0.001384552301692314	-0.01627991781424112	-0.0009101016649234466	-0.009074517161588512
0.002481815817613827	-0.01978124618942525	-0.007067484900598971	-0.009637048179753785
0.003945881472766364	-0.0163197055835167	-0.01296197212682764	-0.008218108718339641
8.633856877075883e-05	-0.0118395365914967	-0.01566152897366246	-0.01266228415306305
-0.0002392583612294129	-0.008327978177837096	-0.01836285655801772	-0.01163625874294429
-0.003672788696882669	0.001850624190590633	-0.0237743995030999	-0.01396023652792324
-0.0001837846322295685	0.002316173866702723	-0.01884250934361475	-0.01041073662053624
0.0022252117850222	0.01062410275749968	-0.006710446155106883	-0.004676998115601417
0.007032559730948402	0.01303748723969214	-8.942029018654785e-06	0.007811060687581396
0.004806513690915167	0.01202518210262962	0.0113973394332519	0.01486887148089707
-0.0005467413879520499	0.01621135771586879	0.02990462521490002	0.0228234755490423
-0.002414832676279755	0.01927040642279044	0.03084484451870352	0.02030390597103652
-0.001788859647312276	0.01877678928976588	0.03124724879664106	0.01828221408015149
-0.005090515826039635	0.003990491393646127	0.03086405546478706	0.01908838362150911
0.0006101765848266428	0.00490808797272661	0.02127277510740797	0.00710623867456142
0.005203612063311738	-0.004949478675778404	0.005965988744725568	-0.002146339885677129
0.007518277731783297	-0.01079220486044138	0.003433166943988863	-0.006554487821317704
0.007279511360957637	-0.01437227907622333	-0.002133633926057727	-0.008767121272582489
0.006933291389625	-0.0152923061994193	-0.008867921212500714	-0.01225339544414285
0.006012210135247577	-0.01310878737110055	-0.01293045831204865	-0.01199463653038756
0.003585518565592285	-0.009762432639453929	-0.01590062181913625	-0.01056833308172693
0.004089699398043915	-0.005820506730453805	-0.02007642763516848	-0.0171125713719803
-0.0006282470486050276	-0.0006942613708199956	-0.02546047391277714	-0.01743144339846676
-0.0008291161127233938	0.003882507444157461	-0.02199389388073196	-0.01328918724480333
0.001081174127290282	0.009996840839140389	-0.01553868101537517	-0.005511744338432959
0.001878250140721164	0.01104644295888376	-0.007257804154791328	3.902129423192762e-05
0.001824781288975111	0.008508031657060853	0.007137315699059121	0.01020659309705077
0.0004016572257408461	0.01238939612153758	0.01485035824378708	0.01570482517300725
-0.002135023733450999	0.02223226882250162	0.02472239611230645	0.01973471482648676
0.002135878304163994	0.01568651591521593	0.02547407609797434	0.02077632043655296
-0.0007384737197941812	0.007070522768675602	0.02313161541325119	0.008932382035542996
0.002322127389994934	-0.001614182858193131	0.01354228857637248	0.005619898730485245
0.00182443265909827	-0.01329905448524601	0.006409142534367867	-0.0008471344516426521
-0.001081753867777908	-0.01718528163070441	-0.00133929341959658	-0.003493638828344504
0.002883326589342467	-0.0272900730463578	-0.007882864246697865	-0.005805785428725103
0.005778735860102684	-0.02077816608473035	-0.0123670460311548	-0.01243978660625622
0.0001216057249417115	-0.01564379621965493	-0.01459793319792998	-0.0126048404945932
-0.00297624944801803	-0.008220870302467879	-0.01227902305277484	-0.01156471122018388
-0.007107386176530318	0.0004899529957061279	-0.0180394535891203	-0.01423573030017371
-0.00770641040095536	0.003169238271480935	-0.01846006912769456	-0.01529971813733954
-0.007058400423054016	0.005420855128295505	-0.0207525327062314	-0.009904136121081906
-0.0004482975829633561	0.01035254340647259	-0.01492164428339523	-0.004801098536482138
-0.002906480506355607	0.01037176750266423	-0.003581233031094666	0.00112111049320173
-0.009144879717186635	0.01531462323999051	0.007304923908812476	0.009608086429312053
-0.007402786195374694	0.01647883417883583	0.01840807234541889	0.01999542693710894
-0.004008514001485814	0.01702571055167893	0.02312249949384215	0.01953011531759528
-0.006535828932159123	0.01383568716222407	0.02692772006680938	0.0203738890192558
-0.00622449706584793	0.001461343870083435	0.02449839230921816	0.01897664667310016
-0.007410358865740652	-0.009284079386629708	0.01278930333085964	0.003895350909638297
-0.008236877447352135	-0.02385167764672856	0.008517193513514553	-0.001725049814535892
-0.006019126574272214	-0.02526124665542687	-0.003177357951821057	-0.007283171820574798
-0.005194952526899175	-0.02915451981829865	-0.007436488659141407	-0.007933312447812344
-0.009506416024515905	-0.03507601646748524	-0.01026877166271831	-0.01081362388169529
-0.01657778051327594	-0.02552888205498315	-0.01219682810429958	-0.00957081450477138
-0.007087903985332548	-0.02146710860993423	-0.01410362079327849	-0.01031648968819454
-0.007130537981330136	-0.009047939817763377	-0.01659960164802576	-0.01366689255999913
-0.000549208779612241	-0.0003027636338762326	-0.02675877549706226	-0.01941468110507016
0.0001703462721573984	0.004456431568968111	-0.02167365084419581	-0.01238722633043072
0.006458057811304842	0.008747689709073369	-0.01847536376313839	-0.008128411798893041
0.001108080473891023	0.01146069983219004	-0.006705690097331963	0.001673837897172933
-0.004600901200823833	0.01726447745875192	0.001840184629081776	0.01024007609165377
-0.004309407816492435	0.02130778460926003	0.01847912241026344	0.01936458583482615
-0.005078959154802321	0.02098575100288379	0.02534995352229434	0.02393425376151696
-0.001751875608309101	0.02230024561603057	0.02325761243990995	0.02342877347934774
0.005654732726555174	0.01874470166368435	0.02263175536060852	0.01806910643308497
0.005627883930751574	0.007576003923821965	0.01552605410098317	0.009110722398661978
0.005158573900923015	-0.0002019881633013195	0.009458271477505156	0.001979244011595703
0.00756217286975785	-0.00713756017134658	-0.002343063512514505	-0.005731706448461883
0.01886231111144162	-0.010343759268107	-0.006973820741504399	-0.00501925140281527
0.01366287296972318	-0.01049775470408584	-0.008182170930210604	-0.006755515413583244
0.01242849943053544	-0.004946123620686111	-0.01099370114645501	-0.006665927687703701
0.009760352529543765	-0.004301613592752122	-0.01493115414903355	-0.006508177978765949
0.009851084585612744	-0.001629370692246249	-0.01576837809268694	-0.01424825578320801
0.003469113709475976	0.00323481105406381	-0.02507320297071235	-0.01779193341190961
0.003879930015457745	0.006800519469036893	-0.02148858267534057	-0.01585395735995385
0.003497166771400296	0.01225227739775901	-0.01866295332850028	-0.009892596002265268
0.004454539813098275	0.01259574865891598	-0.006087351489061456	-0.003297380145198698
0.001272194771745693	0.01297936460943768	0.004901263527519439	0.01333044116041014
-0.003325610673050396	0.01085017327385499	0.02072254427809888	0.01655236009081124
-0.005890314314041052	0.008607890317302146	0.02847851345201804	0.02282214741547564
-0.001954203090297825	0.003362155558949032	0.02987767817292575	0.01897851850228534
0.0008241510194888415	0.0008723955658832321	0.0278244178669698	0.0163441109600645
0.002048680165991911	-0.006036115893770158	0.01719397283020953	0.008767366527158604
0.003352732069069686	-0.0167342974625809	0.004173681077061515	0.002068628462110478
0.000939354658525356	-0.02045311471612625	0.002741501456150745	0.001606469125048849
0.003495764898265228	-0.0147579826331716	-0.00212759805063924	-0.005905955513683392
0.008809194934082873	-0.01987546224508453	-0.008128384649108701	-0.008034266050558793
0.004268199713303973	-0.0141163549317316	-0.01333186164999378	-0.006336740017252783
0.0003704893423090379	-0.007828491598608382	-0.01256375229167583	-0.01036492096263376
0.001358937211845392	-0.002739926812263403	-0.01800880640436768	-0.01862863280539369
0.002424106089288627	0.0008258651676367787	-0.02127678887424053	-0.01695699108362353
0.002001447114160215	0.009949261904606013	-0.02226708205275341	-0.0122359617609269
0.000872573083577232	0.01124747958511904	-0.01345605264652878	-0.004577533245342061
-0.0009282246683793323	0.01418152370756004	-0.003615585381612738	0.002828018084652335
-0.0006571544390904054	0.02016061334906914	0.01013280891534825	0.007979604829872753
-0.0007917962779119948	0.01959683719626019	0.01599467315424659	0.01144917141359594
-0.002755721755447391	0.02062535590684436	0.007590052485680262	-0.001328733632845316
0.000357506086376156	0.01591655949357698	0.003455534631822157	-0.003377039736775295
0.0009986068077443384	0.01194710822008909	0.004556685321231351	-0.002486628053127326
0.001746400888678788	0.00578392157289974	-0.003515093713242164	-0.005706712967601836
0.002285808500709488	-0.003040554658176595	-0.01295000706995167	-0.01405173617470093
0.001819972834276375	-0.008035392792830297	-0.008832179174163225	-0.01186207072830471
-0.002804259599068123	-0.01972483358196241	-0.009275882801001294	0.002863609022495188
-0.004641950321948088	-0.01884413246596587	0.00239102799075815	0.008492938667699717
-0.004855889914385323	-0.01598149693726855	0.01391251934940927	0.01279499414815214
-0.005283638261456292	-0.003216840050287322	0.0245074798563284	0.02274787942847549
-0.003448593882000824	0.0007866516221212662	0.0324583688965249	0.02519705833197106
-0.00203864963034052	0.00155155149334416	0.03375420617451126	0.02446787693217567
-0.006474093422624173	0.001617559301421031	0.02319027893255134	0.0144819402318638
-0.009384311049056805	0.007722072323722107	0.02055545228157109	0.01165579336848472
-0.01097746476781008	0.008887698073977407	0.01118839865599529	0.005236307127625145
-0.006433982013788758	0.01137146213642629	0.001749017848339568	-0.004779993369997244
-0.005208624368212727	0.01443360157525476	-0.009478133318991094	-0.006536889168240133
-0.002034355599918924	0.0143640658277509	-0.01136317616197474	-0.01205240106101285
-0.00104004335110189	0.01112586464252381	-0.01295600232259849	-0.01503164481453787
-0.0005968700863630302	0.004612157688174919	-0.01152715592834095	-0.01183948464106249
0.002710054115895551	-0.007385591772317793	-0.01748409450368495	-0.01312932517594924
0.007577218988554271	-0.0171850044702774	-0.02457389736697669	-0.01664560570489848
0.004438506472795848	-0.02331014393583369	-0.02384690500927749	-0.01635502956156988
0.003810326338282852	-0.0289940441794705	-0.01677852382495475	-0.007912098293016617
0.001538364810508507	-0.03162754254406339	-0.009216923373798707	-0.003973805416382319
-0.002225348097575168	-0.02807590466644037	0.00405802178779601	0.004650375880408121
-0.0009114186929866696	-0.01984702709467456	0.01092823632097593	0.01403520163470759
0.002481577120208821	-0.0107316347646279	0.02149666225618015	0.0214405136488743
-0.000548049494209099	-0.00369083210688067	0.0256522959547085	0.01837247574964364
-0.002264375215683522	0.001985770242326517	0.02820042954520791	0.01479853796870857
-0.004342227605965986	0.009133598834416608	0.01196145059570731	0.005270684427606216
-0.007646507242015789	0.01334207780324237	0.003422133767506121	-0.002968719643201729
-0.003115679367897933	0.01258025818928119	-0.004439828871643512	-0.01080466391862361
-0.004254809503279687	0.01627805492804701	-0.003014842271474914	-0.009555055953566587
0.001954915544275693	0.02007749817177007	-0.01089658992833935	-0.01148365596000985
-0.0005962618547769813	0.0164995853921384	-0.01448826938426422	-0.01188873705413341
0.001300153066003951	0.01372579180405108	-0.0167895914961913	-0.01060909681829178
0.005803657474510377	0.006594131481059708	-0.0195809582285268	-0.01180751855410159
0.006957929426371049	-0.003906871872048808	-0.02461473456633857	-0.02071717884901488
0.003776652130334521	-0.01189540903038855	-0.02653573904860122	-0.01663753034570856
0.002328694090842907	-0.02088946200121814	-0.02101702443199003	-0.007835634955306224
0.005176215777328753	-0.02162433260383567	-0.01253325118757809	-1.560514064782471e-05
0.004775862943327121	-0.01452962090606689	-0.0009373005987130577	0.008111235393799076
0.0004786210149876246	-0.008178861279726325	0.01082204636318486	0.01710594462405399
-0.004310071327422158	-0.004075195212542453	0.0230349045483857	0.01834024105579961
-0.001541476211766178	0.004183577091587796	0.02578418550882567	0.01873824210504837
-0.002194105246142981	0.00752121414132735	0.02710704340896725	0.01730882303283592
-0.003047446248113732	0.008064940812136087	0.01629788490200691	0.006184222119386499
-0.0002108671430034886	0.01264270729850978	0.01078096330140184	-0.000928040673315493
0.002965391662730443	0.01599154977234601	0.0002960299394644845	-0.006855799097102573
-0.002821704735689459	0.01790148365058917	-0.002929367795216453	-0.00608717451732265
0.0002992932038791867	0.01836939125370761	-0.01196768512649547	-0.01025518859318016
-0.002785232325512245	0.01671261381826088	-0.0116105461776725	-0.01293056095930481
-0.003549872676235463	0.01210622470435431	-0.01453204545251608	-0.01137474391500058
-0.001276957533129251	0.002005265761588231	-0.01792007770257364	-0.009612300906497886
-0.003359199585535486	-0.00286496982298943	-0.02424355971368567	-0.01402239535467855
0.005447925819760486	-0.01366759871184951	-0.02250953832621948	-0.01370529037727371
0.004933427608142987	-0.02091935194629692	-0.01902526313899928	-0.009371373668350193
0.001437940229952318	-0.02238069373666741	-0.01151888231164028	-0.001030809299867364
-0.0007434923531471629	-0.02074620469067518	-0.001219359497065543	0.006689628007153412
0.001506605597246702	-0.01314587983650021	0.01781647342394145	0.01504824770497764
0.005582063422352929	-0.004967403474121793	0.02545975974117875	0.02201316763685753
0.002385225479470793	0.001601845222052736	0.02702838802318521	0.02085092963500159
0.0008425044477335111	0.007036147326786916	0.02836166311896653	0.01809585558098261
-0.002578110481263807	0.008849195101533487	0.02050796460619634	0.01154352982439607
-0.002788945610694117	0.008945645573877111	0.01474885638488239	0.004026477975163515
7.731781978307262e-05	0.004321751830864261	0.006311558617741715	-0.001699099616392882
0.0001678010089487757	0.01384593947248754	-0.001120631432814821	-0.003823408595835662
0.000664865768375226	0.01712384657081619	-0.008067498959059014	-0.007281956555654267
-0.01362197175813618	0.006686058288944119	-0.008917378660634719	-0.004886781227801727
-0.008624825105661402	0.01053737718789181	-0.0115601092392206	-0.01040771312329916
-0.003858367299467137	0.009390566038574246	-0.01681182939177019	-0.01023698503127288
0.00195124442272497	0.004641806037775773	-0.02313202907407862	-0.01762509057272163
0.00692839307178398	-0.004589001414611133	-0.02240904273998867	-0.01312411521504148
0.008919794877795996	-0.01548318392305184	-0.0161861364957722	-0.006581892504423359
0.006620049179653086	-0.01806998372583918	-0.006139464650854294	-0.002387694808639494
0.006531363526906251	-0.01452337494095301	0.002411814384076995	0.008156000064520726
0.004243954840386489	-0.01354003837982987	0.0113384347514438	0.01158369824494149
0.005763384945555318	-0.009042408401700334	0.02307121480552132	0.01909859912035162
0.005567556339497889	-0.002868913790483384	0.02882656456373274	0.02205206505947836
0.003826922323421903	0.002638469270775851	0.03473911723901074	0.02155548786227392
0.0009164058880240576	0.003788383118571215	0.02407510077824019	0.01262529703298963
-0.003019796014862406	0.008193908500844616	0.0131514079971999	0.003521238992189228
-5.079143410374357e-05	0.007260848484872271	0.00539814729545102	0.0009410782639112183
-0.0008713444834839855	0.008954243715983756	-0.001916889977256851	-0.004091509860819867
-0.002371366734448438	0.01348537415152707	-0.008318786244116002	-0.008095738527408044
-0.004876216003683003	0.01245557527950392	-0.01277592549661066	-0.007256612582510136
-0.003166337552149203	0.01439372340830517	-0.01146663907295092	-0.006451342617151768
-0.001018419853658583	0.005303647568825634	-0.01752163031616091	-0.01038583462253804
-0.002293298895716691	0.0001366380902242221	-0.02158530077237143	-0.01643445581865034
-0.001180995775527271	-0.00988191146110096	-0.02648056137744043	-0.01565443738220424
-0.00345341879709042	-0.02020901014215623	-0.02105859467648216	-0.01108951413839087
-0.001387953593908052	-0.02533064647811697	-0.009747125008604769	0.0007628671375352833
-0.0003442519690811479	-0.02794363478032224	-0.0002990754456614951	0.006686825857466679
0.003176989003299145	-0.0238804188248101	0.01515645996139719	0.01593400972397161
-0.002857625858344626	-0.01610355656934795	0.02086631278827386	0.01958704598314085
-0.001168222219065263	-0.003855126774608033	0.02671153812722146	0.02123681763076367
-0.0005523179835717634	0.00158203070405737	0.02946069826464028	0.01684447453446814
-0.002833176192465519	0.008603075173188294	0.02377407595142884	0.011157109936273
-0.009576232324745941	0.01843689561697416	0.01407035036709632	-0.001245049266609513
-0.0001485314327586012	0.01680551634097027	0.009103966871528949	-0.003346640996695586
-0.001684880202220518	0.01792961271061347	0.001765853128975125	-0.006154247831689432
-0.008059083887715455	0.02239957664938988	-0.007931219020641755	-0.01285548249219736
-0.006478945996317173	0.02428014201986009	-0.01472062835326923	-0.00928116884306489
-0.003096486137196554	0.02719940306086268	-0.01600572747327318	-0.009916491598130652
-0.002983098058213802	0.01912511313358403	-0.01534205865333981	-0.01013044225447105
0.002307443031472325	0.01246161550200844	-0.02218732422840864	-0.0173210928794867
0.002776866004606773	0.002309987643076833	-0.0192343161159113	-0.01680744485037839
0.003536217796413679	-0.007034427002730755	-0.02151413332896417	-0.0110443928891131
0.004419289999074471	-0.01188521654388154	-0.01157910382697941	-0.004044542969960629
0.005486162369917287	-0.01804200292191373	0.001438884834233779	0.002556646094084199
0.007253559238100832	-0.01948224752382316	0.01205691244762804	0.01471589726079916
0.008793571931629864	-0.01274961259708006	0.02422118417027332	0.02457986371034833
0.004355108873079138	-0.006226543409498665	0.02795147886202861	0.01862283777770803
0.004441542561392396	-0.0006617410016183637	0.02487190280752935	0.02030833513753888
-0.001412099984341648	-0.002376722422651035	0.02028492902885283	0.01020494420468135
0.004032458842187892	0.0009203966727769765	0.01105352938229375	0.003623808396229441
0.002309310101853456	0.003479339116286939	0.002859509992407523	-0.002569014945502841
-0.0004908317930316577	0.006134903969615871	-0.006338370120292147	-0.005096519403205367
0.0003209809599311126	0.01048846905216041	-0.01025259808420466	-0.007922124487052385
-0.001576545329925072	0.0124796659099675	-0.01306025918061815	-0.009903498426735855
-0.0048705456496933	0.01142223614021825	-0.0178949532980368	-0.01205458280935424
0.003274017512060647	0.00262359355078826	-0.01463989979281069	-0.01385548205857698
0.006039789835637533	-0.00424927574954956	-0.01875936119343551	-0.01870234587728775
0.00289605513946297	-0.008606808671139365	-0.02416237810427837	-0.01649452619968254
0.002755375025112621	-0.02213938418544499	-0.01913636893691306	-0.01077469974208451
-0.0003675693879922666	-0.03067911518503121	-0.01371502190774051	-0.006524778878444143
2.056285430789099e-05	-0.02685676271684517	-0.002417406667028518	0.004079343684204796
0.001495621107804451	-0.02488781837887747	0.01464757150203431	0.01243271952642964
-0.003138352618583811	-0.02386228339526672	0.02253032207628175	0.02093411799840332
-0.00367138992670546	-0.01551689650936067	0.02096196894178129	0.02042748627390793
-0.005254876042247819	-0.01042177966598678	0.02629597635372255	0.01729987400771447
-0.005480938730229865	-0.0007632328160265881	0.01863002919308548	0.009793669738788936
4.012410212471837e-05	0.008850507452100212	0.008513429440734764	-0.001370934056481493
-0.002103234999734417	0.01016354075278332	0.0008488124013812133	-0.005750203820960525
-0.0005025531722796715	0.01467361918617158	-0.004474370966500395	-0.004197244589399417
-0.005098409733804665	0.01843708748398693	-0.008804536395138349	-0.008573747645351333
-0.0009646726789537181	0.02381873695713878	-0.01208347108313975	-0.007919017104920687
0.0006105626584084966	0.02175598125657476	-0.01435376015013913	-0.01345939535584797
-0.0009055635825077196	0.01789748527576849	-0.01646571471291839	-0.01115013348418573
5.465327317409437e-05	0.0085702586682549	-0.02094837335291333	-0.0139205870350821
0.001404622146285149	-0.0008182409394433484	-0.02004060818476422	-0.0143786988424986
0.004245009447522379	-0.007561852875192366	-0.01633278177939823	-0.01099478713205194
0.003434009760870978	-0.01155795136403739	-0.01170201417000198	-0.004122043879686531
0.003567300144658518	-0.01459673924019223	-0.002385080843706728	0.003410760709954358
-0.0008300115782995418	-0.01332505188308777	0.00898634435260059	0.01382648649961668
-0.002984063207567066	-0.01032845908598403	0.0222987861021083	0.02126205555782044
0.0001876117844814107	-0.001255344785397584	0.02660797770450098	0.0234777962069658
-0.0009473298443252016	-0.00118882801499154	0.02929382308837991	0.01948676189105381
0.002582070350816531	0.006579792115586807	0.02609532744350385	0.0154835412295137
-0.00589236825188051	0.005930530194137574	0.01662183875230993	0.00190865772385693
-0.006403502731157831	0.007492856742974939	0.006544246335178595	0.001939835580454505
-0.005936178481385618	0.0135672527184028	0.003216495813720579	-0.001903864092984268
-0.006350618991263861	0.01685064139679242	-0.006094869275083124	-0.00638447013544995
-0.007467166012451056	0.01059030142476615	-0.009238942494888821	-0.01119827019820717
-0.002190971476465098	0.01466848974584919	-0.01484807223292799	-0.01145247829069916
0.0008571201406988283	0.005062913359138639	-0.01532668316991365	-0.006552604637800869
0.003596840948952074	-0.005652241065137829	-0.0214065206607021	-0.0140898798261231
0.007942554655032635	-0.009920378676525083	-0.02320662607142089	-0.01365468260023704
0.005271455453308917	-0.01648280236790063	-0.02060108008473219	-0.007058422318145905
0.004032270390608185	-0.01602668361062953	-0.01227930952077695	-0.002082771230710221
0.004507217931592424	-0.0141339685685928	-0.003916818724373843	0.0008291529186039979
-0.001286836140325765	-0.006361967010964472	0.005847186169158314	0.01382820547914695
-0.0005315320180660515	0.002027723663073717	0.02150018572310285	0.02013618452632596
-0.0009147784431762675	0.004477913447527586	0.02974762537270056	0.02331729503661453
0.001090260058070828	0.003340053362538781	0.02774262680753442	0.02084904451466201
0.002216006305681794	0.007749718027743857	0.02352448157604544	0.01246407804161752
0.003755463293853356	0.009206173094351554	0.01366751362168276	0.003808986282025217
0.001413659880279074	0.007829191519282113	0.01061145240448439	-0.001908446608998526
-0.006976609912474888	0.009319920908033713	0.0009087505974004789	-0.00557410559415901
-0.006621557621963842	0.01557387050005372	-0.002726361205871745	-0.005675087503488616
-0.00475441724281398	0.014084357702493	-0.006838047598025357	-0.009242156099652303
-0.001515500752828813	0.01319825501430354	-0.007864150419495706	-0.01083141678153593
-0.001325764207272729	0.005653122542871905	-0.01420932761426876	-0.01470964302765951
-0.003649570215806548	-0.001288814507061752	-0.02083808513409156	-0.0201201769582473
0.001520685271842226	-0.01271437250461904	-0.02633321543900149	-0.02027552611751316
0.002174910457608708	-0.01541056343886329	-0.02408088226826876	-0.01330216413034368
0.001939927780538758	-0.02197214823205773	-0.01234549099548237	-0.00564108789388373
-0.001451569048732135	-0.01443047746969658	-0.003563144172144428	0.004528806328176313
-0.001021712504385825	-0.01178696901100962	0.01262243603987755	0.01136719463584572
0.0001093563901365673	-0.003950975114423632	0.01859906943588258	0.01886376251064819
-0.0005332949626493555	-0.00244700948223668	0.0269138431172811	0.01959256112865015
-0.00231161807843003	0.004761801670639018	0.02734155722536244	0.01342901130765066
1.211313174880667e-07	0.006362671503200286	0.02033706269681505	0.01028616240535304
-0.003585269789143297	0.0124490666190851	0.01562018385885416	0.004102593570257805
0.0002348021382894173	0.01642829936398726	0.005161641423373193	-0.0003418356067802203
0.005968472174451322	0.01735397584742671	-0.001949197204226943	-0.003243733545442748
0.002874533657331515	0.01625951303625644	-0.01051677172746284	-0.01126485832208035
0.0006383649792539177	0.01661725750806045	-0.01295901945712543	-0.0166608566252563
0.001236438106270006	0.01325023799603993	-0.01251361332933896	-0.01630208696752901
0.001490225188348559	0.0033465663415496	-0.01385543027094124	-0.01148030196666894
0.00726816079642638	-0.005415385914355691	-0.02101424114338127	-0.01571296971192912
0.004996942797170238	-0.02021727701114979	-0.0244047110305925	-0.01276224655924651
0.006092586853800029	-0.02530891107511321	-0.01952357343877921	-0.01248179234318863
0.001295065233734516	-0.0297181388058568	-0.01396003942435563	-0.0009310200967937047
-0.004948270172984722	-0.02889775078572186	-0.005737505783430244	0.004334683371169733
-0.007482489931546958	-0.02525504153789729	0.00757701596684804	0.01451185267826832
-0.007256424735731148	-0.01785537722786231	0.01745483449929799	0.02555105225773196
-0.009895371552399891	-0.01296209836612091	0.02696324918926418	0.02381258572712881
-0.008932057730270693	-0.01184089220129811	0.03111700654939068	0.0206776514937843
-0.003289789008694022	0.00142408842387827	0.014256685051637	0.01229789063919748
-0.004831642340981167	0.007012021829815251	0.01192534531201504	0.005539508298118858
-0.005013649632043312	0.009028893704170411	0.002661070417778945	-0.005995960751952407
-0.001894305547991438	0.0191005567410115	-0.003298622469614603	-0.005865025516339021
0.004219930471375739	0.01940861698299445	-0.01075192363902193	-0.01042971391783995
-0.001361129525756321	0.01877062763455133	-0.01452108106416841	-0.01282145419116651
0.005062784773359545	0.01632337030825779	-0.01236216963387383	-0.01196910789911992
0.006215554823091269	0.008709727618204446	-0.01910960528600578	-0.01064041192903062
0.01014040496889702	0.005932446688376737	-0.02275684700233947	-0.01468021022000249
0.009580865343689873	-0.005890815891578629	-0.02352460960665954	-0.01334692244872672
0.008941602560401728	-0.009821424539405052	-0.01608368162894501	-0.008973409537363119
0.009655551202870084	-0.01576115301837301	-0.00677640984952177	0.001692780080113619
0.007794043726258615	-0.01292768170735774	0.006042409331114775	0.01013290552962747
0.005799458664598484	-0.01054645114302658	0.02033025832044564	0.01800084343796163
0.004142177596077416	-0.001081760036710362	0.02662764284872233	0.02420076587417341
0.007171422726342593	0.004763322191570801	0.02931162836740104	0.01882331278088251
0.00147592238280217	0.01049931199089497	0.02404373898364174	0.01950555737072524
0.00366575703160245	0.01127248555178764	0.01229461557045614	0.007761448297280364
0.007597645257637932	0.01832031124129426	0.007052046020124242	-0.003798969957278098
0.001968937959571737	0.01373018428399353	0.003180039275343316	-0.004995221643954506
0.0005970091439856213	0.01764968799298245	-0.009810285953888742	-0.0096544438605905
0.003380579340412571	0.02211046921350868	-0.01028232011760089	-0.0134811013179351
-0.003071392467421901	0.02261771106848576	-0.01507533748940806	-0.01174399079384859
-0.0001292358381986694	0.01710179904064917	-0.007991135904531045	-0.01041837223874226
1.412529887794348e-06	0.006941183356114344	-0.01274324841766318	-0.01276775151846541
-0.001809665509970873	0.0005967842523710457	0.01727027134893497	0.01397324582187399
-6.778848366929982e-05	-0.01362459921662622	0.005649373418045792	0.005315014319221928
0.003371806502514626	-0.02365782915404601	-0.0004996891261098788	0.002996769102286309
-0.001602080628272593	-0.0262648437788174	-0.004536041550384507	5.030379402135829e-05
-0.00316890372839223	-0.02442067426605069	-0.004051726559652762	-0.00223107422889464
-0.002569582138937714	-0.01776812160390247	-0.008393528818893044	-0.001864649742087053
-0.005465966342890736	-0.01367337031359476	-0.01220602964003329	-0.009282902736551846
-0.003310998786997691	-0.00890638633765883	-0.01912471977799099	-0.006608736231825022
-0.003443642073073894	-0.001625495509741988	-0.02163217028453664	-0.006950784682095715
-0.002606758485444939	0.0009567287339834363	-0.0143855772327601	-0.001291787749790361
-0.000964246398447753	0.007813675262027156	-0.004587047910935172	0.004517899402551115
-0.003908298824066708	0.01077527808847174	0.009819267985528389	0.01290185180326701
-0.008763549649471477	0.01267981566544353	0.02176977650790052	0.02079601226300351
-0.009250611588862085	0.01839323206166822	0.02747317156038073	0.01755960636772387
-0.001617193488692764	0.02039685060844269	0.0251025408890858	0.01728748699630076
-0.001159770027057401	0.01609513045511823	0.02810004246355543	0.01608933334910067
-0.003665236760247856	0.009379017602990791	0.01967719832934756	0.00392995053532838
0.0003861080663708714	-0.003902698825234669	0.01130995640572774	-0.001742335063242144
-0.001698555446909391	-0.01092010067084988	0.002459207281000025	-0.003838876762004259
0.0007268549830455466	-0.0173253974263854	-0.0004519092688956276	-0.005903053694211433
0.004204890723091451	-0.02050404629231099	-0.009829570958951197	-0.01119555514646056
0.006563388843312	-0.02307701600837563	-0.01229947497147869	-0.01258704342290913
0.0008211011819797027	-0.01401662118395687	-0.01439602260746773	-0.01187522144544085
-0.001783357359630276	-0.004512662672345945	-0.01719052170902545	-0.008879931051764314
0.0006097979827098106	8.679019951514247e-05	-0.02506258420006649	-0.01892228944426955
-0.003105640340139303	-0.002624938016637392	-0.02046218052961914	-0.01916182715055952
-0.004302398290138895	0.006082677638030361	-0.01820436416222534	-0.007413008303029518
-0.007433471742730071	0.004826393563432935	-0.01107434296083494	-0.00366617401337685
-0.004326795240764629	0.005377360624818688	0.002106390174744588	0.01108304336336086
-0.004040765225300214	0.007380136738865482	0.01671816992266257	0.01771921096315779
-0.003816844250275894	0.01203979727805876	0.02933136584655555	0.02507610374812732
-0.003177615957257165	0.01247288952776262	0.02753789064528762	0.01760958565114551
-0.003092228552113264	0.008331988724985268	0.02871224535010714	0.0157920335242461
-0.001173818681995974	0.004135557170639279	0.01783342873630099	0.003726020722771704
0.000541530503938285	-0.006947390223897903	0.008401475426940591	0.001985654367527598
0.00145241964698127	-0.01631553630789955	0.002561924462052828	-0.001286421785172776
0.003474475344985003	-0.02210610384070322	-0.007009087571054056	-0.008562405797679369
-0.000164261125865393	-0.02264238892177787	-0.00825519322151361	-0.007495055057616306
0.001663038688263171	-0.02391404673915135	-0.01277511812293653	-0.01272016224047997
-0.002691554932552681	-0.01462177323865738	-0.01530174926813024	-0.00995992191935299
-0.00466708850993248	-0.004168329924912161	-0.01504940786041259	-0.01590776545569567
-0.0007449593306028842	-0.001841327257645448	-0.02568337477518927	-0.01523890143230423
-0.00414669187673636	0.006829120857161293	-0.02575311829241586	-0.01879979251144792
0.001524904282251954	0.01240089590039256	-0.01854648742008031	-0.01207875382499132
-0.002897958318630777	0.01439500914828022	-0.01156641911431639	-0.007328581393244068
-0.002984855836432675	0.01683652694833665	0.0009439048405611289	0.004712879722180582
-0.007343352610226801	0.01707956372662383	0.01226166836376283	0.01533428649709234
-0.006140642377799272	0.01760216809646782	0.02132629160775633	0.02082241067594142
-0.001461052756714458	0.01789563905997848	0.02710282589190435	0.01810430078841088
-0.0005429761742734298	0.01577906434792823	0.02900265915754544	0.01798402500640103
0.001640997789469209	0.008946835901958322	0.01671476523244475	0.0080226085699843
0.004095136257431826	0.001352263782846816	0.004666804839663882	-0.002471244658351335
0.007703503029963275	-0.0114134659077128	-0.004379056182474836	-0.005547053999027007
0.00799595477902075	-0.02180563941291085	-0.00342286548769811	-0.00829668765993918
0.01107612504191149	-0.02420841491367905	-0.00899581768865684	-0.007101314427902448
0.01161181942745834	-0.02922736044284534	-0.01314102961789785	-0.008127730981535486
0.00635843390179465	-0.0202722983008222	-0.01401036375071243	-0.007883668262760015
0.001440157856596691	-0.01445977326796097	-0.01679191534840776	-0.008084940909127123
-0.0007260781020909444	-0.005270554906659906	-0.02123534823571776	-0.01404320249718234
-0.002704556113605404	-0.001658738956224294	-0.01867599127421929	-0.01558774697461807
-0.003689772887571879	0.005595912226069202	-0.01879844101825934	-0.007139533043054631
-0.00092013670874908	0.007676661957987722	-0.01079907593395468	-0.003240275050909887
-0.004218510529713151	0.01184981189057084	-0.000530529739952829	0.003787733540575422
-0.009529382764365131	0.01527638237347324	0.01736500043423784	0.01421641157322336
-0.01067043557601765	0.01888610972069831	0.02859480753118972	0.01978695215499618
-0.006782705578672785	0.0223731462833395	0.02898163349130415	0.01936459384920425
-0.0009892087644653787	0.0192606779098184	0.02536217527133043	0.01832307863292321
0.0004538539889215021	0.01108618239509199	0.01955344218021034	0.01191980872133748
0.002259385344376757	0.00709902522376269	0.01271039567268733	0.001611940625269393
0.004089488839734015	-0.0020485663089919	0.0061437974865179	-0.003886959633974919
0.008776779925145263	-0.01040167712557103	-0.00235153175464307	-0.006004877006834139
0.006204925240101336	-0.01631681460795729	-0.009666138067207806	-0.00682014473833968
0.008529703563920077	-0.01484099755735659	-0.007847213785633377	-0.007958624591848708
0.008306857330150597	-0.01236476764405819	-0.01760951252249834	-0.008248505208814132
0.003723167983338197	-0.008681477844623024	-0.01795851938104404	-0.01033001745158786
0.004280869524974559	-0.002799034275583401	-0.01777538664328608	-0.01138427388701357
0.002194029961545172	0.002211943649825294	-0.02453461401027393	-0.01314408773237838
0.003857561258164909	0.009536834726039025	-0.02020689233901791	-0.0116993157631611
0.003133109295927127	0.007457874773862528	-0.01161384040776734	-0.005197196026752841
0.001020122283901554	0.01128169972318861	-0.001649159189898992	0.003003515636323755
0.003618719328808421	0.01563904489657732	0.01503519084165984	0.0204315168373529
-0.005430919963793962	0.01884062253122742	0.02746232282646176	0.02359243267358403
0.001101666638408908	0.02165139659818312	0.03193296117342284	0.02277593246083544
-0.001557758743076295	0.01537977012066294	0.03000026796806113	0.01873509742051361
-0.001683414447207616	0.006335520232453976	0.02486567956758065	0.007231832269300662
0.004043653558819277	0.0005636215436557398	0.01361697681286786	0.003444818471265699
0.004912878040176585	-0.008073513073822867	0.006803165696697249	-0.002725721635091739
0.004773808605420213	-0.0183031176066002	-0.0009379699048605915	-0.005750220825198409
0.002839821970644923	-0.02032943647958674	-0.009521484101243177	-0.01052985708551712
0.001130267918920343	-0.0210748433822723	-0.008339142007523739	-0.007859632236906338
0.0006816848086896598	-0.01650129494812099	-0.01343905803013004	-0.01031084547168967
0.003531841735885412	-0.01016700009818581	-0.01244103432577264	-0.00957133322561322
0.002098500448389646	0.001015132254878368	-0.02071098262799812	-0.01260883101074259
0.002342700706642479	0.005815840366940096	-0.02224324989716824	-0.01284331245890266
0.007111181002906647	0.009635013635777911	-0.0200218012432449	-0.00945667483766232
0.001187271927740463	0.01159269303106553	-0.01233742414359273	-0.003768257389708716
-0.003916849125078573	0.01248481173915875	0.004347743087682109	0.005836135798188584
-0.004031138784715903	0.01466228708030501	0.01461748577699594	0.01654786115356386
-0.00456438910315126	0.01908967366556115	0.01623090952005945	0.01680717227157782
-0.006257603086728142	0.02019312422828474	0.02293171101203699	0.0185732055219829
-0.005150354372796167	0.01491651426054617	0.02509047270075942	0.01854723609564683
-0.001355710390433308	0.006020504339792274	0.02062123300450341	0.01126563167942862
0.001221519602331821	-0.003472157481205269	0.009230134558098221	0.002448083789706079
0.0005394745324451391	-0.01275932772797573	0.0002842974651618977	-0.001628306600359995
0.001586833053382322	-0.02086480964034724	-0.004527133229621881	-0.004546781480227326
0.00536504321589438	-0.02826705151595391	-0.008257872198269078	-0.007655231303049917
0.005070360632934832	-0.0277857289155444	-0.01278205834186093	-0.007524188322542044
0.002766486962403084	-0.01903055454760193	-0.01647276311696044	-0.01209593406664298
0.0004881051366658253	-0.01284504721480277	-0.01940334119951889	-0.009116431307962754
-0.003485461513900852	-0.007311690869490089	-0.02172417861103895	-0.01573234533105223
-2.445902109072132e-05	-0.00361658542261436	-0.02396951032354819	-0.01871893694150862
-0.003386201331838807	-0.0002084912738880716	-0.02069916975984919	-0.01152262171032937
-0.006079098144586953	0.005340508922797605	-0.009463813959073593	-0.005182455736688764
-0.002062129473081235	0.01074701110380307	-0.002871406936790648	0.003270656537617945
-0.006343421869670954	0.009815122089440879	0.01404366786061038	0.01374747063170406
-0.008458764581788503	0.007976247634607945	0.02346143504786048	0.02147191672028706
-0.005408359886662636	0.01754370371033218	0.02687415776938302	0.02006015788096149
-0.01026487121289136	0.01181743204440337	0.02579771893967088	0.01816596163662888
-0.007404200465752771	0.002370576644778193	0.01871135638163838	0.008734741175723322
-0.007103669280525437	-0.001777846823781288	0.009479797422722133	0.0027848829391981
-0.006127703909751117	-0.01195644017051434	0.004199771008317242	0.002098668072601624
0.002452647318423905	-0.02147533046127945	-0.0004669466321887638	-0.007393854461633812
-0.007968484420864222	-0.01449081049652594	-0.007315733733720968	-0.006893595257166065
-0.007254122875288539	-0.01084211821463288	-0.01237541806615395	-0.01122454919158026
-0.003362487301956527	-0.007342721778603514	-0.01824338100020714	-0.0136759207717752
0.0007642299616880182	-0.0006559786899609419	-0.01338146482312104	-0.01380363774422049
-0.002886335713217073	0.00213834340081627	-0.01945819287294553	-0.01628709065418148
-0.003573675575735866	0.008746527136065928	-0.0243103886790435	-0.01523567277024939
-0.006434073511818113	0.006771991261798975	-0.0223615806360006	-0.01345346054621928
-0.0004936276714187054	0.002355646102811797	-0.01213006083323785	-0.004407412324655625
5.339798398789564e-05	-0.01127368171158777	-0.004454091514828212	0.002922637035574835
0.004489016529938414	-0.01951602606517473	0.015184381726552	0.01189514857596635
0.003425368900006719	-0.0235643713496331	0.02259676096525784	0.01982329213129249
0.004229273448982061	-0.02544467430308485	0.03065528202869392	0.02170558133429168
0.003631327538166591	-0.01666160999348856	0.02742932675257893	0.01765100923919981
0.004428045092054717	-0.01088567090394681	0.02236766050982764	0.01377124509657892
6.231127980002732e-05	-0.002524889439365301	0.01393405429128285	0.002342103751504677
0.00558628687590585	0.003233952605348576	0.002491285387392082	-0.0008575467754101031
0.003022363387950436	0.01107720321550373	-0.005244212508247353	-0.007344270623938836
0.006430063428008022	0.01551487238409741	-0.008184145637067451	-0.01068008225962482
0.003195407759335959	0.01434348206625285	-0.006672948059995561	-0.0128943781069917
0.002648092009636834	0.01766905389838086	-0.01108852790658764	-0.009852640287544602
-0.002146624101474202	0.02537098481480755	-0.01627909317684264	-0.01200313201620014
0.0004065084576027811	0.02449915357847987	-0.02049028556760365	-0.0126570042038375
0.004991252075173252	0.02746671702870588	-0.02119400137982029	-0.01305856395029813
0.005265825727203859	0.02189681913340195	-0.01647589895464822	-0.0138556630472359
0.003213871569814052	0.0148426464536345	-0.01440021495251437	-0.005862160887862253
0.008521114927867141	0.00954499441748965	-0.006562837916784163	0.006758584726334359
0.008633284818659097	-0.003501179336142042	0.01020875033553662	0.01667785861355146
0.00725810080449438	-0.0137029984779197	0.02472178614633366	0.02403220999762855
0.000782844565171445	-0.01650625034966093	0.0301759344262379	0.02413387418245666
-0.001407230765695835	-0.01740622807602555	0.0329359829453655	0.01902797322917406
-0.001065785074714343	-0.01548748293007605	0.01932286180436167	0.009959291374923081
-0.001176528253959386	-0.007829447176941359	0.009622257079458794	0.003488430417624266
-0.001617200392639005	-0.005578095085784679	0.00548876110547135	-0.0005289706754242611
-0.005345299542945538	-0.001001822195160621	-0.001929472950455136	-0.003050454303367254
-0.005388370696350408	0.0008759110114256758	-0.007084705551534904	-0.008589864764351134
-0.006679537088838434	0.008560661259590235	-0.01103758756525842	-0.005464831971175333
-0.002524633895286833	0.01281389452858935	-0.01263269979511097	-0.008880348485131542
-0.00363404917295701	0.01550381342992451	-0.02044474408533043	-0.01302670061928072
-0.001689632982899423	0.02190761677762491	-0.02232288071488402	-0.01795627404147435
-0.004550728673698972	0.01706512100395668	-0.01952861893403586	-0.01395436715055046
-0.0007789635038468311	0.009674568653104581	-0.01265359240974483	-0.00391740209237091
0.00381312893698681	0.006652352084124534	-0.004598505061321189	0.002469303560548389
0.004592410901952539	-0.004848965086279024	0.01185858254915741	0.01366928806037431
0.0007216838192099068	-0.01294623670663324	0.02139445856292841	0.01676515633088747
0.002309969802508183	-0.01818707188733942	0.02687392071821785	0.02421768764524955
-0.0001677106622210806	-0.02246945395692619	0.02920977916405251	0.02322095821587226
0.003555587820631788	-0.01795329308652257	0.02435864628806104	0.01611583618387047
0.003969885207566847	-0.01423839045373622	0.01570839997694069	0.0043726740890486
0.001419467584540865	-0.006983616945348733	0.008936348669445494	-2.426147297274883e-05
0.003780603731532094	-0.0007189437457152775	0.003460189902903761	-0.005905280495922662
0.001592429145727948	0.001541444404678351	-0.0103212429071201	-0.01236922510313645
-0.002679220881528654	0.006939991192830855	-0.01596443506107945	-0.01235559480527356
-0.003401369773071173	0.008253626484990007	-0.01670378007499495	-0.01116681871904445
0.002629919963330022	0.007516512898297273	-0.01635645399246823	-0.01211812900654315
0.001493023318890984	0.01317938171019907	-0.01953753322623053	-0.01560213870587644
-0.001317977101450287	0.02016503308774832	-0.02340197994310024	-0.01601795200606333
0.001314070054917665	0.01881946330638885	-0.02221311097020874	-0.01050745657456477
-0.0004276524538038758	0.01171878063354622	-0.01079749799351362	-0.00382296685389651
0.001534548040063142	0.008954216222911305	-0.0003916416318371136	-0.0001381805801816004
0.0006418556797693468	-0.001655389165014947	0.009336245660945902	0.0137451497128599
0.0003814303552538105	-0.01129460510359988	0.01486093434820167	0.01609888136601064
-0.0005799165916186746	-0.01729732764863617	0.02457716721265499	0.01933265920383728
-0.004582712829681089	-0.01920077087025683	0.02571476965871372	0.01699614868710785
5.002016843116529e-05	-0.0231452684125384	0.02461437343926172	0.01398315903875768
-0.008208911080401525	-0.01231688223995369	0.01195523363951042	0.002951965535568216
-0.006478214988033705	-0.01345105075563514	0.004997016780812921	-0.002039482291848396
-0.006637977232175882	-0.009769696824689787	0.000500761907157911	-0.004575429842235358
-0.00729529727411599	-0.003003839408960083	-0.005279670565137751	-0.003706618676011921
-0.001860614728559231	0.005471710780059255	-0.0123019794826241	-0.009568370406710772
-0.001197816078474919	0.006439934060428047	-0.01323875297555889	-0.01146040045483608
0.004893424665034313	0.008005319978472314	-0.01487145617174768	-0.01159623405259888
-0.002897721071425024	0.007649233606581335	-0.01929230270786283	-0.01162799666911102
-0.0007705059543280243	0.01226323105196452	-0.02616466029952628	-0.01489234450058486
-0.00195636063609231	0.01299174590892545	-0.02267203978999468	-0.01481031527401286
0.00059712339825401	0.009646308720613174	-0.01750890014421588	-0.007233435527813469
0.004091046181481242	0.005602853705775095	-0.006675708871386008	0.003528175601519282
0.006744390234616745	-0.002154775305821434	0.008185590609686932	0.01383622793388813
0.01213467818225525	-0.008334096070347928	0.01726640208632035	0.01833344844208927
0.009463346232080557	-0.01172428298104797	0.0239230388630238	0.01653949067638715
0.002517289677766054	-0.01132791088961559	0.02560775178509276	0.01834116936429041
0.001169162741450484	-0.009157510308367745	0.02619375905710086	0.008331053164689305
-0.003215502633214586	-0.007404857180888143	0.02050485242741663	0.006361306066226347
-0.002126156931033714	-0.003765503778351226	0.007786100517888252	-0.004241278272206953
-0.001795829878620706	0.0006240095627119399	0.001107662543808082	-0.004632981421573678
-0.002630478997368531	0.006206501263420766	-0.009234589781701373	-0.008743182936026954
-0.0007689486508394628	0.01166820090443212	-0.01338986421989594	-0.007354542642086384
0.001926984283371877	0.01389937331757257	-0.01295756179940221	-0.01291154925088523
-0.003175602652727045	0.0137830145220997	-0.01588479532483188	-0.01408074987517129
-0.002256650376000026	0.01193573825761529	-0.01918126754253677	-0.01938305583538512
-0.003565401713263711	0.01519866748927407	-0.02342771195437739	-0.01733258746010606
-0.003715555068446372	0.01393869466185185	-0.02094546469508684	-0.01583650610033982
-0.003130875994383781	0.009010230121825469	-0.01221334696087195	-0.0090375443215068
0.004737909311629077	0.002914292441748218	-0.007507059932456329	-0.002342189846385902
0.005360019141911544	-0.005306906663338986	0.003180431790425197	0.01384237968782202
0.009311674734670454	-0.01137652423883499	0.01785253899076648	0.02051196685293573
0.005973944638453963	-0.01697742990371158	0.02753884349278517	0.02127164466410108
0.009040320671720281	-0.02125930785745323	0.02863946290122033	0.01683447038469611
0.009523550951390793	-0.01916420656067339	0.02507369618539419	0.01014800363117356
0.001425210246143934	-0.01274393776167894	0.01328582455700272	0.004604591599167697
-0.002977868324056596	-0.007570777200365357	0.006798632182192614	-0.0008614759666675605
-0.001272011405428307	-0.0004754923953530622	0.0004418306246604165	-0.005859377959043986
-0.004800890194614599	0.003642166855827432	-0.007829320019739587	-0.008345278731099881
-0.001856809074116936	0.009691668993575918	-0.007652553166683515	-0.009023914529265127
-0.003281239812015639	0.0133177562571942	-0.01244416475471155	-0.006684782035357942
0.0001441457546161275	0.01488702720258847	-0.01254162453537601	-0.003931260312170694
-0.003698825331972881	0.01339121865108954	-0.01742197707927266	-0.009972678866787229
-0.009456090011501403	0.02105848930277431	-0.02201257005099451	-0.01603026870934364
-0.007682538084051141	0.01617536192504464	-0.02266556492568229	-0.01640182559831315
-0.00698664940384193	0.007697873677755002	-0.01734203346783597	-0.006679630088570657
-0.007492233954372825	-0.001091250409816387	-0.004028386467093728	0.004554639817692199
-0.002923220790009595	-0.006696112419303978	0.006338730324949594	0.01378736060286682
0.0009520645155256225	-0.01843786301164242	0.02041560992955588	0.0207232679595624
0.001896536035132522	-0.02556267051109071	0.02690609754315996	0.02220834915053133
0.004152105082751974	-0.03130411812542553	0.02807191730701437	0.02404836985758964
0.008007977992047817	-0.03108903592728627	0.02788401672288465	0.0206629390821633
0.003348950714000533	-0.02249167614130084	0.01921939560432435	0.00902652451715044
-0.001031701036287006	-0.01395278581301169	0.008162389540474236	0.0006422970117248691
0.001300257285405748	-0.007416173442096339	0.0004568049698343019	-0.004400737629860681
0.003234040078697122	-0.004359639963115952	-0.005084299759214824	-0.008117150209871018
-0.00054685414246227	0.00531672506862495	-0.008757403905912151	-0.007771776623453248
0.004375413841724893	0.008331166634819776	-0.01470647108366331	-0.008467128832443141
0.004075030091027908	0.00845401115437818	-0.01514635292588727	-0.006897031460722644
0.0006076686983916116	0.01345865602311443	-0.02043383216621324	-0.009305974533321463
-0.004776932522238242	0.0176107889665632	-0.02146872003341712	-0.009507487043008661
-0.00407602282735372	0.01775188463742252	-0.01924638300546166	-0.0148369800336989
-0.003146928043060159	0.01511802596319362	-0.01672076177083361	-0.008726056372743506
-0.001418102495078427	0.01033353071670124	-0.005503571745871302	-6.102536365021598e-05
0.001985152624682534	0.001645466338711227	0.002655055320648405	0.00996035661256515
-0.0005983837139602919	-0.006999153789498548	0.01844623435346218	0.01936216093074717
4.198246008860031e-05	-0.01474533881663648	0.0317707155793813	0.0224258515698924
-0.0009773311234689878	-0.0194311921749565	0.0310019896825451	0.01866541409805011
-0.002582204531629683	-0.0175882802872601	0.03004330574152071	0.0164019273048789
-0.00248523395608822	-0.01252530429766401	0.02057016207080391	0.007991145336400805
-0.001673231234288795	-0.01088554152938173	0.006417769324997359	5.064351699313608e-05
-0.003938072918322624	-0.003388144839378778	0.003709579371813486	-8.976499565043383e-05
-0.004156085629273387	0.0023251514116193	-0.004390742752394601	-0.007240428421409375
-0.009336973343667456	0.003618804522136278	-0.01032045850590908	-0.00843417866875526
-0.003306868630644254	0.01046188635666791	-0.01576949220189633	-0.01040185746053367
0.007133773824011044	0.01977226205060982	-0.01497125743351952	-0.006170433675776538
0.006394049931888483	0.008670197056951275	-0.02058973869264703	-0.01716488833936084
0.001614446173033002	0.001128623195191863	-0.02375207765265359	-0.01806597710136556
0.003352765145569792	-0.005623918421786927	-0.0248585680215463	-0.01492659532481471
0.006633144489198523	-0.009188016234552435	-0.01631639534693766	-0.008416010800124642
0.005591481528173306	-0.002336091672231996	-0.005388604000200523	-0.0006606244283617591
0.00139804305402561	0.0006185488126462389	-0.002955295272431779	0.007014998305105499
-0.0005835980464024095	0.007269041043049538	0.01437358048113007	0.0178501723341748
-0.002663728871487316	0.005847286520757034	0.02801803882857257	0.02202861009873236
-0.001219506992702616	0.008278301330107776	0.02857624616957938	0.01608852973270763
-0.002754256599696557	0.009002187719125702	0.02984232606765484	0.01578764215867311
-0.004115606486938771	0.0134527892570923	0.01877936317294812	0.007031704201309186
-0.005718908768802032	0.01233448647560584	0.007587295125588853	0.0008108020258994957
-0.001215773158472061	0.02268941169796159	0.001632914974688439	-0.006015599994356757
-0.004372153983853982	0.02081596189251254	-0.008011931054631013	-0.006087076096343962
-0.005007753720090031	0.01663688722663441	-0.007460428762918113	-0.008989435100479228
-0.001339314945949653	0.01246920085727492	-0.01249400428109114	-0.009546635308961961
0.004048750309963703	0.005668638445385119	-0.01348440053627998	-0.00947574479405475
0.005296035665659353	-0.002809988717493717	-0.01845894880028581	-0.01296235948924227
0.006816828663882384	-0.01327659718629536	-0.02442908630841767	-0.01440047485497137
0.003769049042672232	-0.01826632021119705	-0.02135223262398133	-0.01130769488740892
0.007500908116269924	-0.01680182387812765	-0.01696275180281833	-0.008652275265737518
0.002888146702615326	-0.01447318816921758	-0.009121125464170998	-0.001592294697731356
-0.004419194431097031	-0.006749906343493746	0.003168137756722525	0.006256155340756383
0.0006296653177413835	-0.003089998636130429	0.0138657067001914	0.01589443731632079
0.002768399940697652	0.004490608922271913	0.02505394573597267	0.01493975974840801
0.001005184738636833	0.002839717850011003	0.02667371277006522	0.01841343319375323
-0.001287774275119302	0.008205472706171535	0.02420943501447498	0.01157754377180337
-0.0001022100602706157	0.006066018303012014	0.01718506318733687	0.005585302499975381
-0.003992761489342072	0.008360970646196461	0.01161012804233538	0.0007350471821391809
-0.00270743220076379	0.009136981728580205	0.004637343551767064	-0.002757627254731515
-0.001302836744869533	0.01559403292159649	-0.003279444788924195	-0.006288229489671748
0.002997506521382063	0.01164961827533739	-0.01100883796552274	-0.01008862555837012
0.002959852452299966	0.002639281436517576	-0.01342557642114956	-0.01139370385972477
0.005982523628258686	-0.005632192119466573	-0.01346729275323096	-0.009138908311040932
0.008316217929749684	-0.01451956533113561	-0.01663192504009245	-0.01518448905535252
0.01089036503723845	-0.02083907435271749	-0.02297999449312895	-0.02156506365067951
0.01037666421367872	-0.0278775511601111	-0.02407171911024946	-0.02091240336890914
0.01188370024787609	-0.02552859530690035	-0.01859559912577115	-0.01347101422780896
0.003336140273129991	-0.01618804238234477	-0.01186900313578523	-0.005503774164863161
0.001386046218917709	-0.007628621166219121	0.0007891171238733068	0.00723338495050398
-0.002884306636867595	-0.003122381314176376	0.0163796062875767	0.01251720639949813
-0.007955202908577189	-0.0007243098437902934	0.02346610363200959	0.02375488193609897
-0.009549538136599535	-0.001086093405952633	0.02611035478483311	0.02281269642989403
-0.01209595741504219	0.001853471636418612	0.02867534447228537	0.01824955550118124
-0.0106998740096966	0.009768947386631397	0.01474178078886962	0.00784373277763202
-0.01346311933711819	0.009669288384329256	0.005690646718023003	0.001853813155965142
-0.01375767754254567	0.01146205975237397	-0.0004205931908751261	-0.005225250408974414
-0.01307974615061993	0.01384502755528413	-0.001215100823626347	-0.004390734847056024
0.003872211954828501	-0.02548295755341326	-0.007460180475203489	-0.006832153209783367
0.0008051051175960836	-0.02186965555033176	-0.01322920329842255	-0.0079157250071882
-0.005348747396228353	-0.01495228221284988	-0.01485406489175304	-0.01031171188636394
-0.001743091203669584	-0.01003113669377726	-0.01874836467784331	-0.009581895769964315
-0.00457095058826385	0.005962522891416466	-0.02271901303611428	-0.0168914102588748
-0.00366892459249727	0.005713012195444031	-0.02632732463064399	-0.01161785068795851
-0.002683326721170176	0.01173381158575008	-0.0187903422558218	-0.008314677401753892
-0.0004059764128210913	0.01425291153004661	-0.01195598589662077	-0.001683559858603137
-0.002544002428237227	0.01950028926433354	0.005799356714205296	0.008259002686860337
-0.001116895283964143	0.02205668672316474	0.01710952674959717	0.01857350860299548
9.659204047357301e-05	0.01886527765477816	0.02754070652317669	0.02328507148114265
0.003146002683324332	0.01032299635851039	0.03246677307653009	0.01863859381128278
0.004380300899020135	0.00391534006149202	0.0292528717178829	0.01584671577575367
0.00220454762040017	-0.005398694460587584	0.01938021746217125	0.008998943548326423
0.009502356185109178	-0.0132460550640307	0.008086079629156681	0.001770349221821418
0.01068256966861635	-0.01443126585672504	0.001738084300422553	-0.00275798333356744
0.01255229872447672	-0.01683011839490072	-0.005714777225691822	-0.002057012097767337
0.005650009981415409	-0.01594322857898349	-0.008627797635763058	-0.007028553577522002
0.006422869280982696	-0.01252427473658843	-0.01023467260317302	-0.006270805171212921
0.008217157983693596	-0.007841821109294669	-0.01312311112260701	-0.009404748945528016
0.006954575251857616	-0.004373890608800332	-0.01739622413424825	-0.01234785842399328
-0.001524968052511509	-0.002019831832043692	-0.01748554802150266	-0.01153627469900884
0.002390337797372961	0.00229700638930997	-0.02032662042866203	-0.01380163545763727
-4.889231814722848e-05	0.006144451308956965	-0.01696649563098259	-0.007036814884090204
0.002042582042577836	0.01507610497497803	-0.009347148694584136	0.0003962722238158978
0.002957434478614469	0.01424844986945611	-0.002623803505931755	0.005150351401302974
-0.000690553974399893	0.01249999134591617	0.01732929104364906	0.01610251783708523
0.0009743880921137586	0.008951303889665011	0.02670070534763147	0.02273147441347726
-0.003727573818644698	0.007733126737974103	0.02852262992692476	0.02542033673831602
0.006510034087360107	-0.005196662917541575	0.02899257804777118	0.02170732114881172
0.001719199669210049	-0.00924673190008201	0.02653575723552061	0.01239711220573292
0.002822421623022667	-0.012553209990629	0.0145699003088399	0.00426943862683898
-0.001937096618860366	-0.01407556713974501	0.008188141504795177	9.682736135598795e-05
-0.001488100459422581	-0.01421012386303449	0.002479022711219588	-1.574032140463176e-05
-0.008405481484975457	-0.01245901586870538	-0.007303039717714575	-0.00428842865608045
-0.009212896537582865	-0.007156724855149693	-0.01373833163796775	-0.009772336611785282
-0.01171825608775015	-0.001968212940220124	-0.01287813981289799	-0.01388807033032399
-0.009550998846620725	0.007499183784924738	-0.01523897779010361	-0.0110837587922052
-0.001488131076421181	0.01160017024464531	-0.02091094215485301	-0.01870594459693279
-0.004427918379962493	0.01104113720997976	-0.01976505941360355	-0.01499213579149105
-0.002291490601607838	0.01740086134183602	-0.01952822071100798	-0.007480359954911735
0.0008682539273600083	0.01692938661606334	-0.008422135458231051	-0.001709353090760401
0.0008892575901303765	0.02600043882125889	-0.002746781018382148	5.795420318250616e-05
0.004995852050328377	0.02264766540928433	0.01209177302842765	0.008172693851017352
0.003575460721370791	0.01829095754653406	0.0229978892918056	0.01888922886996699
0.002025336660135784	0.007418837543949286	0.02363401545878447	0.02085355425089494
0.008303826755741442	-0.001246856900087859	0.02582396337131514	0.01360317717577949
0.008023676510271536	-0.01064930399751392	0.01960617871904912	0.01091391785334314
0.008604495157095472	-0.0187104817767993	0.01122907924678227	-0.002061748445520481
0.005837118296550816	-0.01719457834254168	0.003974168906785978	-0.00259914098589175
0.003521556951554075	-0.02030044999794728	-0.003051047591235815	-0.01047660993793997
0.001727333088175245	-0.01059672935338677	-0.007343964782749153	-0.01500448097671004
-0.0004838208373152554	-0.00922213557109253	-0.01560579892686364	-0.01288025410939226
-0.002364394274511028	-0.006528095835314761	-0.01463230400108224	-0.0141634862593765
-0.005449994772410084	-0.003799710580118942	-0.01716684383763459	-0.01339001082789932
-0.008334263861035338	0.0001185560456686	-0.02451761219604272	-0.01667535655705983
-0.006589783349946019	0.001980939239681821	-0.02526602750930201	-0.01575819205463854
-0.0073966919095673	0.001297234412636411	-0.02522123456534681	-0.01339807569836796
-0.008611789431633952	0.01020574117684244	-0.01111432344477525	-0.003787142112729672
-0.004954484730620402	0.01469306464179099	0.001522436227190135	0.005564084292988806
-0.009127333512787593	0.01641258060130475	0.01355032341882229	0.01584284685864741
-0.00464688527593679	0.01062185461510451	0.02410035493274996	0.02241853201322072
-0.0008858341003166311	0.007213111811087378	0.02855579196272015	0.01913765669545052
0.005176293839077217	-0.004255340360914004	0.02579839259262762	0.01918709105336307
0.006791026821280749	-0.01474102705229698	0.02174129761513439	0.008176271990607087
0.01104052131923687	-0.02286052244142967	0.01017406978035897	0.003066182848483444
0.008871314169531679	-0.02322247735601519	0.004385065284556343	-0.005761885452660508
0.006051746331240495	-0.02264661402633189	-0.00391581187492982	-0.005306060578054038
0.001937335164427047	-0.01882940405150501	-0.0126883287464605	-0.01227650277509137
-0.001344272943224563	-0.01030897677775821	-0.01130922420530842	-0.01175315777279324
-0.004716516160722914	-0.0009256271134830483	0.006056599779388642	0.00435861242733484
-0.005664262896913849	0.004292412354223738	0.0001887034680988067	-9.359264389426325e-05
-0.002933789515957603	0.0102073155935325	0.01457407592966401	0.01153966426229974
-0.002155160623025223	0.01185959723075414	0.01007308975000016	0.004138311950997489
-0.005516675755874886	0.01602477096506304	-0.001695790950650166	-0.003021835880301283
-0.004065856303201121	0.01739185509292287	-0.01076217068290896	-0.007119377856120831
-0.005258993367041182	0.02528864737780802	-0.009361034820443911	-0.0071571478360163
-0.006258034060335092	0.02004953514053359	-0.0170247741910713	-0.009777927524053379
-0.003196616276111128	0.01616016526244881	-0.02253639163220129	-0.01190319119607613
0.0007043706029571363	0.00845426325563883	-0.01855499494630183	-0.007421462769099125
0.005330905381896985	-0.001122166505278977	-0.02365781740341825	-0.01081620012356065
0.003433024493969875	-0.0125672736276888	-0.02847953083280338	-0.01231731374843765
0.00402984647552029	-0.01927997182541097	-0.02572942487501825	-0.009795132111427025
0.004792347625583385	-0.01520626978444795	-0.01732039110788437	-0.004127727328359236
0.000263445717047799	-0.01887582104538661	-0.005974048932232141	0.002754356688174206
0.002243688886879388	-0.01157492511801437	0.01012173816905884	0.01174953742782153
0.001803047299038278	-0.007128024378274873	0.02052738730938526	0.01945318633338467
0.005717750223805225	-0.00443624128432064	0.03202893738059739	0.02118848094615977
0.002606547671283411	-0.0005246869964524185	0.02316987683388733	0.02159366211822627
-0.0008323384828120373	0.001978711189559483	0.02130611019322893	0.01276314705585892
-0.007050468161119085	0.004204267181176093	0.01072844335924442	0.003747660279816962
-0.007989239814659297	-0.0001175028436763034	0.01007754849307054	-0.00331874992443467
-0.01446337414922964	0.005273305576432467	0.002903911062196442	-0.004162964093911288
-0.01568443267905874	0.001213818565378071	-0.005820260469402975	-0.006593765825184795
-0.01313220270597323	0.01314975894373414	-0.01172623595307923	-0.006352377784069808
-0.004004692485983742	0.01157758509870024	-0.01406022306628995	-0.01059313928247929
-0.003113187729079642	0.007857956437471413	-0.01263303168473253	-0.009519307438092973
0.001281109116122684	0.0001697674706888636	-0.01704491256438145	-0.01261951020777095
0.004560760511736475	-0.008968107465569284	-0.02770478128884381	-0.01473270241436171
0.007145819499306861	-0.01556974634513679	-0.02040020735572123	-0.008768321677050855
0.01026811890522546	-0.01618037704125396	-0.01109447634046256	-0.00572359497894528
0.009026967868927281	-0.01339374463748359	-0.003756515780127414	0.002632913826991457
0.008525423147997884	-0.0106527540627232	0.009406316160316038	0.01124353258678368
0.004103825597587254	-0.00202523921490992	0.02330543144671684	0.02131002236171073
0.006070693169050193	0.002071079138049937	0.03425540387467377	0.02486655234758221
0.003780076738368126	0.006461720366152109	0.03202741638754601	0.02249833315514159
0.005526631738847002	0.00838680460760188	0.032814446577501	0.01810417911137598
0.002295529099363565	0.01004062225315921	0.01950557791388641	0.007577133366011291
-0.0001232843604571707	0.01575465375817393	0.01009100254939375	-0.0006880613342636918
0.001699815277449194	0.01866346474140112	0.004552582967039082	-0.004466115774962634
0.001308379182979716	0.02147103957744068	-0.00493275472971415	-0.005344936277292733
0.001412901600352458	0.02045115247319546	-0.00670900168230821	-0.006591756546919747
-0.001657111470219232	0.0176791379818379	-0.01369112479193388	-0.01135875777916915
-2.181475182076509e-05	0.009859460697997259	-0.01243476647637478	-0.009602571566911145
0.007728446284868028	-0.0005905647952276891	-0.01821417115197448	-0.01446551515630246
0.01032927956738934	-0.01052045759000578	-0.02142541622016483	-0.01707943097287747
0.004512106339467027	-0.01518849379902658	-0.02171726417018316	-0.01268837457313656
-0.002653348658037306	-0.02259083715669601	-0.01445134207184335	-0.004758934917068709
0.003498215182173435	-0.02059965078028994	-0.002285086900556225	0.001704897514328152
0.001138314862668394	-0.01526186991700012	0.004554898195303705	0.007594791111550493
0.0002437937022676491	-0.004087432866788019	0.02493922659766082	0.01969572112247208
-0.004013415994717647	-0.002139822867680022	0.03356209470125521	0.02708183769423351
-0.002779438942118081	-0.002947841295714698	0.03122747220604335	0.01957246742109813
-0.003226198430925901	0.004416752475774978	0.02530230753336372	0.01578358189561513
-0.000764181843262109	0.01105692748154638	0.0184704224995472	0.008399949753033214
-0.00134696270050348	0.005890630686390936	0.009763812971007589	-0.004521992011486605
-0.003357204883935094	0.006725285647014627	-0.000872029598616793	-0.004803789940461206
-0.00316478324901283	0.01370583939811796	-0.003970274889206506	-0.005735544630753775
-0.004096554058753677	0.01314435876743491	-0.007841067473552392	-0.01522901923117067
0.005114533815502663	0.01099544904328486	-0.0132280073561521	-0.01022472940675977
0.005166425664759956	0.005846516880589459	-0.01520294874365005	-0.01112713406785161
0.003072578847751193	-0.004539782864280605	-0.02203670315961883	-0.01281865868700531
0.006448081246644197	-0.01443824981159509	-0.02555747987411467	-0.01689233235954416
0.008412952822318432	-0.02469521576363532	-0.02190197847251523	-0.01757331295533347
0.005417958302376636	-0.02002040731617742	-0.0192955418269513	-0.006333892862476154
-0.0009642531328921904	-0.02326257539161433	-0.006318866553008676	-0.002257950758170193
-0.002931068716223336	-0.01166528658921384	0.008399907254011841	0.0121180151628687
-0.004408392203675531	-0.009696492850338837	0.01466269705355513	0.01479512844862906
-0.005964087048600773	-0.004783306347446278	0.0338078642867467	0.02007795638568152
-0.005548362512942583	-0.0007625499160465266	0.02860858833197444	0.01762956173686478
-0.004681996439415253	0.003051686798958605	0.02016638447381757	0.01827065834235678
-0.007847041546412987	0.009879330950285521	0.01539106971189839	0.007867602734970953
-0.004437915767118559	0.01319326948724206	0.003402594664313605	-0.001969365471783862
-0.002045186856597967	0.01978437669276589	0.002389021983995035	-0.005085325912018436
0.0009276914114191314	0.02598450429561242	-0.006116292503341689	-0.006358296106423852
0.002126349507445118	0.02438042978828372	-0.01131315619838281	-0.008186114817247217
0.002922960540913809	0.02227784977187474	-0.01654104108328321	-0.007827887025098467
0.0008586422995376336	0.01213312166049973	-0.01623361176348941	-0.01038327349906532
0.004684338508270793	0.005719711568754005	-0.01789580481199232	-0.01634342406207
0.01113569745748614	-0.005201095880759016	-0.02379961314853697	-0.01794492268670954
0.00674970319712997	-0.01467591689281398	-0.02895273856930232	-0.01664294735131376
-0.0001597202218501059	-0.02740297009947259	-0.02058546747602533	-0.008772518044931132
-0.0002850826276281358	-0.01951462282157216	-0.01067802854239926	0.0009443775548914181
-0.00665572649548396	-0.01587703174612223	0.001722491196164545	0.009986565606981657
-0.005559155274702167	-0.01283499682095127	0.01653055143799967	0.01665408211161863
-0.01289606222236643	-0.008773692813469866	0.01903826680870581	0.0187353205044605
-0.008942600255299733	-0.00623260376901716	0.031551582300866	0.02079435835803057
-0.007625860163079489	-0.003881150074937643	0.03271214484914332	0.01334536672571305
-0.00716914910690424	-0.003062762881168882	0.01743810188094506	0.006770338217811998
-0.006808007221148267	0.01404420010443714	0.00841337961000088	0.001063387317431429
-0.007244989115030947	0.01511879863570213	0.0005280691037232567	-0.00683158926231737
-0.003930869610649665	0.01575393814971187	-0.002341501909555996	-0.005749743685039221
-0.004789722557817381	0.007575553270502671	-0.00771731188084113	-0.01160018766671027
-0.002098903633585547	6.996898112022007e-06	-0.01030339422697972	-0.01159105323552942
0.004038222420412737	-0.009674116658770016	-0.01405976285072847	-0.01106337040230975
0.002430988952420884	-0.01935360540239239	-0.0144531459662213	-0.00970896234659787
0.002545537017354279	-0.02667122614593317	-0.02822644793221705	-0.01448919262919025
0.004343010288430115	-0.02052354438076564	-0.02285513264850813	-0.01206616769554017
0.004448231382042138	-0.01491850277046035	-0.02133086444891208	-0.008599602712923815
0.004403840968421269	-0.01147997640881894	-0.01043274724852501	0.0008856151589190707
0.006039351788976314	-1.949868378686966e-05	0.001425754017462965	0.01212691450409808
0.006291773912864497	0.002203809240141845	0.01966091424042713	0.01684900754763242
0.00613320954458556	0.009097285069350572	0.02519482824545446	0.02110200189029764
0.004885623675382227	0.01207539882419468	0.02395341708079327	0.02143675151606803
0.002931471076875978	0.01753604133098854	0.02438435137267691	0.01826734144038218
0.004689236450907264	0.01516533756456915	0.01681747266260855	0.008702487979711373
0.002056916819220359	0.01849695554295126	0.005537762650421795	0.003351016754660579
-0.001238861380798741	0.02109140218132912	-0.001255666937381723	0.0003994619567598284
-0.003811907334515636	0.02211908934014982	-0.003776465622434777	-0.006082479635407519
-0.00324931605492457	0.01542131840583855	-0.01190948697579986	-0.007648507845151305
-0.0008786864106481197	0.01577541372173293	-0.01621453163846527	-0.009875831667830789
0.00135916249398892	0.005916739560609087	-0.01229230179414297	-0.01095317069156873
0.005147765316179127	-0.004307930998375531	-0.01393571596210875	-0.008213042940979519
0.004362532736552851	-0.008593761692628507	-0.02565036414563171	-0.01522691872330359
0.004711507913079812	-0.01855424869309074	-0.01977296600431322	-0.01411390504702332
0.001896106830237589	-0.02047304554548014	-0.02133295751414089	-0.007166669023903199
0.003122785961935316	-0.01368933277609507	-0.007629133045075013	-0.003219110565454534
0.004333274394417003	-0.01084373501520989	0.004576900654406751	0.00297944586963383
0.0005474327704144352	-0.004685799315534971	0.01650033058539685	0.01189944933556698
-0.003796638427392167	-0.003958491982480366	0.03332491015040193	0.02095093790198514
-0.003652080291139422	0.001781262741301449	0.02399527094807542	0.01907718927152421
-0.007936114755545252	0.004240624854133175	0.03088827025035908	0.0118078180297586
-0.004331710772556596	0.005463190517126028	0.01935425112331568	0.001804900094615528
-0.005499778629688508	0.005248684894252032	0.007762984261161675	-0.004471432033321428
-0.004423924461728111	0.006011255019185697	0.002484968410208043	-0.007309144671350592
-0.0026822331164056	0.01550067054384023	-0.004714932453265668	-0.007341788132005562
-0.003264704170141807	0.01177655717430041	-0.005844582656729936	-0.009374758206969635
0.003565082975012394	0.01022959139464482	-0.01028029586552607	-0.009641885810046722
0.004367210907261087	0.0004729464374131346	-0.01657618277790783	-0.01099793033292657
0.001129989070656947	-0.005988990860628768	-0.01945939812123216	-0.01495423508018556
0.002062150973531339	-0.01587919549856434	-0.006363077530767377	0.002021488631161779
-0.001009667675144934	-0.01595354265268066	-0.007294091649039036	-0.005004169584647325
-4.340566209545621e-05	-0.01807865130305068	-0.01164293572422305	-0.01020924533210039
-0.004554761519521664	-0.01109850564806985	-0.01360554023474036	-0.007084754719777341
