0.01532047558044432	0.07246657142274558	-0.001014087444384329	-0.08384014085688343
-0.01298335142788309	0.0397535018020849	-0.009170752996482932	-0.1715671573289599
-0.0302157262307865	0.0100048881741337	-0.02942057353791346	-0.1730845572934647
-0.01661119552206977	-0.01448126109816598	-0.04669876282326993	-0.103618998948056
0.003359687402790089	-0.03413882332949885	0.05985705341731341	-0.1014289439534069
0.009911226214040791	-0.00450910724149135	0.02573652882352718	0.04208031335657742
-0.008140469260289128	-0.009528025893195173	-0.07354406617548639	0.06885430168526954
-0.03601971296580531	-0.02010536147990491	-0.1061358951324611	0.1083070691286043
-0.0265498004475706	-0.0196251934201427	-0.1048276931875183	0.1723443496981207
0.0175417030934577	-0.005222372710152773	-0.04714228462687207	0.2063314638988029
0.006589736643494103	-0.03190111387972262	0.02886501543043023	0.2599958088256422
-0.0242197364367167	-0.03733561082789337	0.03075194357144335	0.09676760342057809
-0.02569462342132296	-0.03877924561198227	0.05205206726254204	-0.0343873831982814
-0.03982781659251988	-0.0225684053105162	0.0581620185506268	-0.07484624397518988
-0.05390326942391302	0.000718918404227057	0.02641961751721678	-0.09685440373013267
-0.04268316469819099	0.04069880766822742	0.03784207233033889	0.009134682254700238
0.0613552300419523	0.05849806189669442	0.04556238666471916	-0.03588925086531954
0.1153657453286268	0.04275672464069796	-0.01737699936305165	-0.1067795887503396
0.0605976735082096	0.005468645292389429	-0.0799395645895938	-0.1547386226131062
0.01797396599497649	-0.01224878675625285	-0.1420136906137525	-0.1316591916072788
0.01258216455371642	-0.03542080470544667	-0.2799349457473436	-0.08925978957320811
0.01361373436181247	-0.03023339360093095	-0.2655322620181703	-0.00518737385225927
0.03643673675138204	-0.0413884641546233	-0.09024983060541326	0.00800954290930973
0.03800829269585634	-0.028724931521795	0.3145933092855362	-0.01585467075826092
0.02658014423140592	0.001200675121569216	0.364225204131602	0.03903381257953537
0.02457013110901171	-0.003024181144053817	0.3140767908211453	0.0468458574869576
-0.00648047462494205	0.02488307150499613	0.1130284402515798	0.008242321772011998
-0.01317978277508802	0.04361478011781019	-0.02485816109291796	0.02015293068042617
-0.0405482268620477	0.006381421198841155	-0.0812632107729496	0.05181430960005749
-0.06013788234151544	-0.008309532577645957	-0.1017850377143845	0.06564475455452715
-0.07944921726905391	0.001083927569525067	-0.1283606497376502	0.07454549229001124
-0.04806203600840017	-0.00161673053446684	0.02113014133174021	0.06477830217772784
-0.002176479549733063	-0.03815344184023033	0.2678543650785482	0.06783440158329912
0.008932429950167129	-0.06210454949167547	0.116332676595782	0.01692075364892195
-0.01923104218623092	-0.006092293400079919	0.09111339336871999	-0.01803142211100845
-0.02680404767791962	0.03197387781631947	0.1435546039289355	0.01277114945538949
0.002591163680369319	0.04111545143833102	0.06934011074573149	0.005332796691937565
-0.0003869229725858129	0.05772907896185115	-0.02664777004095569	0.01175704714729892
0.01783784437872539	0.08283774355370313	-0.02125738842322316	0.03066532712617994
0.01922621223661562	0.07571940856102226	-0.003589829086611586	0.09436871492639062
0.02545970096303321	0.0480205219257944	-0.02660510113530702	0.06272164915539198
0.02466083397778534	0.01284220040120678	-0.001373122815111477	0.0005423886818940503
0.01555728375931988	-0.01569077765040455	-0.05519519503066964	-0.07522924268588377
0.04853227182679413	-0.01220607729437821	-0.03857183600375498	-0.06538629738123346
0.04208667129961344	-0.02182500345618512	-0.04437144258793497	-0.006419489091487303
-0.00410537712972102	-0.01306875010555997	-0.1228467592470506	0.07829763602290812
-0.02132130026854333	-0.04645123829929119	-0.1458330604778196	0.06291124244825622
-0.03079341172779424	-0.05788885898605632	0.004831384406931948	0.0008280674081232128
-0.01632273241320283	-0.06780649912283281	0.06988972127051049	-0.03683656081898391
-0.03964966335904771	-0.04596337084472292	0.02984906072323862	-0.1003648476705373
0.002117244448722555	-0.02004217568194776	-0.04474984619404689	-0.002351055241098223
0.05821372076489234	-0.03512520879878297	0.07927758356115894	0.09760952836078095
0.07624698407695986	-0.05811692360414884	-0.07773594699160659	0.04134165785612347
0.008751656986731247	-0.02917256939375916	-0.150003114932527	-0.167482822584849
-0.01336031645609195	-0.005789576507002809	-0.1265678749869396	-0.1646436463835693
0.02940311667633905	-0.008353752415606937	0.1063353434935973	0.003598445652351899
0.02004512641468588	-0.007545665110974169	0.07545105100034941	-0.03621561271361107
0.01391668187599127	-0.01122570336864504	-0.054900296076313	-0.0001100745550632011
-0.008633799318492235	0.005853026342319466	-0.069933676797755	0.09199168093445666
-0.003368982514245849	0.05909928066309039	-0.08937872490186119	0.1100478457179775
-0.04025752369815727	0.07842794651998744	-0.1104669480046218	0.0192501260225466
-0.07693186151012223	0.08850695229958633	-0.1148825470283391	-0.004670875179120343
-0.1255234094236138	0.06072153379138547	0.06813844201053346	0.01603879476009878
-0.1455273792823212	0.02802392849658752	-0.004712725489720657	-0.03096453218635226
-0.01895873347683004	0.005929557078034066	0.02711433801434565	0.03563376546064626
0.08477600834156794	-0.006787043608946535	0.09544406634956687	0.03647333671685909
0.0585998392407104	-0.03141054339880716	0.02016769501486465	-0.01955835150827952
0.06764619803638199	-0.01799992125351547	0.07317160283455376	-0.0486406598411491
0.0854885267730614	-0.02662149996563902	0.1343744770084644	-0.07745596542986775
0.04821861178728716	0.004414377731074075	0.0999708056856622	-0.08952462307120235
-0.02442765236691131	0.005681319250361423	0.04773924856799018	-0.1468104698956686
-0.002801459618527188	0.01855190255853655	0.06049876682024202	0.005031460919283308
-0.08150660049130032	-0.00843522243782764	0.04415542558126669	0.04788394806570881
-0.04995445650044508	-0.01955148305346948	-0.02778119516413419	-0.03708667693646239
0.000253647294721215	-0.03145795690921478	-0.05721871721955381	-0.1142758504622726
0.0500893482950008	-0.03923894005234629	-0.06958817450200659	-0.07128535279874164
0.03265173333227324	-0.03036334772567377	-0.2050218491600775	-0.1196116443845166
-0.004195200154192823	-0.04394428983245344	-0.2326727638495142	0.02246255996752104
-0.01097305597829842	-0.04149246630313146	-0.1697308391794151	0.1727932682046132
-0.02415720105260696	-0.01114865330605219	-0.1071937976773426	0.1590599534359744
-0.008895212055279144	0.01152788034154163	0.04086664908848196	-0.02852809107619834
0.007178132856345122	0.04469201972430274	0.2494642645166402	-0.04490758107350381
0.03883271285674976	0.07061984766150776	0.2185838629889565	0.08242255588728563
0.0330813498140028	0.04959115098222925	0.2277501866361582	0.09580273975280372
0.009103301049017968	0.03503251101968915	0.0960849382930796	0.01638820845161002
-0.04783025547188879	-0.03600949807879819	0.00145486026106671	-0.04302867249618599
-0.07744362200332354	-0.02936289597628925	-0.02120749797353755	-0.05476589532405991
-0.06386990660340895	-0.009334201540576631	-0.01375925474699568	0.02437510401951976
-0.03180384095606358	0.002441440176516203	-0.01743051506727213	0.03053364306712383
-0.005021858518443371	0.04622677975847615	-0.1227223958984197	0.07097460628443471
0.09186199378825072	0.01027926174925459	-0.1381636251023388	0.05941926480885495
0.03562988312950475	0.02367283953240579	-0.1280471974670646	-0.02045512454131653
-0.007145952778046324	0.06968868292421447	-0.06555940033343745	-0.1038311391216372
-0.009134182812181452	0.07020153921730823	-0.04732478699450451	0.05276805418730383
0.03657057779059928	0.07158896129541097	0.2872185704743385	0.2589641865197763
0.007794288416053239	0.03435490928386664	0.0823957013039131	0.1988926595347799
-0.03685601258490899	0.005023654706554817	-0.1186413246563645	-0.02102790319780912
-0.008547207046386701	-0.0009193569887997904	0.01277167490630268	-0.1616667931647524
-0.00922599122742925	-0.00145012604667263	0.002791384318768329	-0.1391681741897136
-0.03471110198905026	-0.003096596996601068	-0.01957487867593806	-0.0869433745508196
-0.02186693745530114	-0.009587638289631896	0.07482824093919051	-0.135532900074204
0.011382826993073	-0.01170952812583393	0.1863943132681949	-0.08669369239454854
0.03663967911342572	-0.00154539720289416	0.05918776424448409	-0.05431716184923475
-0.009735915739841811	-0.01182666469013392	-0.07653134228086667	-0.04293233074365709
0.06258297517321067	-0.08743640089561164	0.03388482530045276	0.01577804303662287
0.04033086001480662	-0.1394320700602595	-0.07881240370458878	0.04731723585635865
0.00710143601237309	-0.1057674282448763	-0.129464831441689	0.04621227472621508
0.001364815105442619	-0.06721734080269731	-0.0703652748898784	-0.08262713767824539
0.0435391348854453	-0.01442995031508312	0.1400486673688815	-0.02570105928335975
-0.001617147444173324	0.05981754672406703	0.1827596016265146	0.05984641431834175
-0.02041093175426331	0.07004480059020343	0.03420286366829747	0.05797839315871971
-0.04228493300096165	0.06999180106639109	0.01588831069775135	0.1076874317260846
-0.04707262390372457	0.1099101726406754	0.02761995989414944	0.2762094329797133
-0.03695172518629565	0.07740743022316823	0.02929392927651345	0.2567752677087413
-0.01259367791931174	0.0381923937449716	-0.0524626158817447	-0.004838178590643358
0.06609282794880544	0.01944286483319206	-0.06224883761675319	-0.2905046655171798
0.0705297525329468	-0.02445764096839599	-0.09580870895965658	-0.2283525019445404
0.02890250260724123	-0.02093305364895038	-0.1248247446071201	0.0005245818393053452
-0.02112409092896234	-0.05320561313214488	-0.05678238530696007	-0.01732668891046291
-0.00930101647986784	-0.02397304840113565	0.002231852000816665	-0.03311597393771237
-0.009651670996873082	0.006736837445365487	0.0069705458839946	-0.008279452518400662
-0.02909312302605412	-0.00368892557727891	-0.05452098029536667	-0.01599915506552227
-0.01778761379102581	0.03282190985608447	-0.05411149904373237	0.04889919857028475
0.0559907578178027	0.02791892421455219	-0.003268267448785687	0.01222317723121977
0.04314198824573147	-0.01075246508965553	0.09415195075077198	-0.04444807726293897
-0.01175356946012123	-0.05130204212248965	0.1257645225745608	-0.0696917845439748
-0.01120575886736854	-0.0422909485098464	-0.0134902303085298	-0.1094979967714575
0.003413187033994982	-0.04733805997706079	-0.0734527279923289	0.0150380299988389
0.02452435313600326	-0.06136005633249075	-0.06336632748166596	0.07175531638215385
-0.000462008356449476	-0.04974669269898991	-0.03460080875203997	0.08406842034739861
-0.05421975644698741	-0.04684591593800278	0.05537559703871271	0.1320215628333955
-0.05117466407474747	-0.04692345185359498	0.03076956054764383	0.1168895089802533
-0.005566341195406156	-0.07338172724315101	0.0267006648139551	0.08457854014150146
0.02307101268198382	-0.04621713298913983	0.06585003606587052	0.007466251138161209
0.004465130718118418	-0.03690376249372024	0.0357936211216314	-0.0826591226587125
-0.04305935072124499	-0.003006716148216868	-0.1205197287220325	-0.1397955327860994
-0.01320368090244325	0.06164098120485051	-0.06839424312640377	0.08278927103803574
0.008174925335961524	0.06705235237491176	-0.03758372549822192	0.1765450352081652
0.02044048331286951	0.04530437904757949	-0.1047612309645528	0.1689753612364266
0.08369796991400294	0.01683058507891089	-0.06080678039574117	0.1001007411313447
0.06019274587373145	-0.002172440427782351	0.1095867695963566	-0.09654793860286703
0.003373782229600569	-0.004877273868320047	-0.006668599961985648	-0.1965846540329535
-0.01481010594358441	0.01602414448930419	-0.1224590264468773	-0.1989585938884631
-0.01923706034224572	-0.02673724035214991	-0.1358083226511445	-0.1489462755115009
-0.01902475779204422	-0.04218316549778504	-0.1374958082771962	-0.06462765713880417
-0.01286489980748803	0.01889339437632116	-0.08902326903151428	-0.1075105385891928
-0.04765810247150511	-0.004409162571614353	0.0519319557494588	-0.07345258289123689
0.002323821668291187	-0.02792738631399472	0.207443542021712	0.03981115725256262
-0.002868408119051883	0.01119395503246312	0.09530985187816436	0.06092730666385883
0.01461438308225249	-0.003603079576740712	0.1952752092276508	0.07435922172659645
0.007158081006656756	0.01957609907115342	0.2470811211468597	-0.04862834975148718
-0.02374365462604948	0.0456112806423545	0.1981395770593195	0.03213056828421917
-0.0405897324732937	0.04556172731054203	0.1359468823318343	0.08360710256138153
-0.04622227531887436	0.03794455022126286	-0.01451160258961148	-0.01282514879480918
-0.03957518295165541	0.009320086721454152	-0.1178609804724745	-0.08804472028133145
-0.07025091769052785	-0.02108049731646427	-0.129074769524693	-0.06791832055729771
-0.0588880601762934	0.01692842272498315	-0.1473403644562083	-0.04429935314949892
0.008077774675471333	0.04585263468733751	-0.006755896866229066	0.03411549764820614
0.03531134482202167	0.04509556935626505	0.1381999954463917	0.06190540056138664
0.1022430634034832	0.03138612796535577	0.1264077895587574	0.06989679108474495
0.1245110226499265	0.005046434983328437	-0.154103873530368	-0.05403589267630226
0.04956928708356106	-0.001531633087333988	-0.1034929709852318	0.0001275211166105479
-0.02141489282272593	-0.002384415239062599	-0.02459300743712405	0.09028423129693346
-0.06452592884574684	0.006152161793805884	0.07247212047378217	0.09138528781002378
-0.04876719116297266	-0.011722845484534	0.1672130799306166	-0.02256339986140386
-0.01535297659610511	-0.01887437004958414	0.03235004283243266	-0.06842726952042566
0.002177674549728839	-0.03646415014760216	-0.04154297046583554	0.01882747804293147
-0.007140106102138444	-0.03658720633492467	0.003787854050469683	0.05499826949181021
0.03087153598401805	0.004008477271523509	0.0545127724123758	0.08028533033537322
0.03825455152558811	-0.02503852434814587	-0.04301798658572632	0.05542435164367659
0.01139100282354353	-0.04403307695036642	-0.03279594350299751	-0.01559453866726879
0.01288082409762509	-0.04391769917383315	0.07473379824966331	-0.08967968521735029
-0.03451547094738244	-0.03789830137118552	0.05975928240898809	-0.06954437182537927
-0.06301120288162843	-0.01380475856645727	0.004775841694496455	0.06001132310364011
-0.05401047882764305	0.001093554207237806	-0.03252060925825185	0.09817650797355858
-0.02876678191240039	0.004942847736244002	-0.1131908092830585	0.02103310455148603
0.05497934244183483	-0.04760886864749415	-0.1592701287547878	-0.1484011062235046
0.05374792319257883	-0.0826879441162736	-0.1884480655697919	-0.07706684276903704
0.05727129144897121	-0.03007020667704862	-0.1779133570168787	-0.004910805396789804
0.05926149360492284	0.006128524840614436	-0.1350311699910978	-0.001085261699287048
0.03950754989445956	0.0367249891027186	0.01240579153203285	-0.005894487036481081
0.002912419477537218	0.09200862161368951	0.05449952982330921	-0.01810116890871828
0.0006198306661616064	0.1192189797948603	0.1676938167690137	-0.02431436137655507
-0.02213698308997369	0.1221828794252269	0.1192176437948071	0.06044288926871671
-0.02240702209600133	0.1274687956999586	0.0947074728489813	0.1705555309495904
-0.04511005692835902	0.1013024133744035	0.03702711256458836	0.1434553182133093
-0.03318161194503091	0.02623088974682262	0.01150172772333797	0.2060918689780369
-0.02184374717222522	-0.02223892113781701	-0.05042122645502873	0.101143054535316
-0.07173062878015325	0.006073400875478304	-0.04013885672761711	-0.0489603716448561
-0.0940607687905593	-0.001563605193537812	-0.06529926190285612	-0.03057756699697201
-0.01999712057918844	-0.02388729964325935	0.002120256172685495	0.06513795351979579
0.1220443991652119	-0.05863125744756302	0.05199249869796359	0.01830367638989674
0.09292636060162998	-0.0482941853276062	-0.03758668343833155	-0.01923197665683118
0.0871165825416622	-0.05866327140526609	-0.1088258207542809	-0.1126245931474739
0.05713905504511804	-0.03254263830644476	-0.1103546516109652	-0.1733163485305858
0.03299738716805773	-0.005260917542791478	-0.05867821110104374	-0.1878553023665943
0.0366250832118341	-0.01085332021148045	-0.03587665301416568	-0.1206506078100636
-0.05956682476773072	-0.02281197433287338	0.03379024790331296	-0.03140558669623388
-0.03570352977258204	-0.01811553922866014	0.09513227996075582	0.03139722666499433
-0.01300541673294793	0.04171063687468674	-0.01324046142192475	0.02871895178310211
0.03620707603067855	0.08794475450817887	-0.09647297058214208	0.01252104306559651
0.03204466669037091	0.07340617266651617	-0.09080978112765348	0.001366125773986162
-0.0238721775232444	0.05652748310735144	-0.03243038476152044	0.09643673373799283
-0.03225192439458465	0.0826201378327184	0.1229222717453373	0.03803827692994938
-0.02542364338444068	0.05032669721492773	0.186593249390451	-0.1034012136532761
-0.006766902290455848	0.06490680097276871	0.3323080024989882	-0.05382063986329427
0.00277912774737676	0.0578252591557688	0.288049405739436	0.1449289711699266
-0.009265874284975733	0.01190584436655768	0.1001349723437245	0.2108140065191092
-0.01525886000466782	-0.02156141349057853	-0.001240430941359916	0.09442189387535048
-0.01669872269444567	-0.04022117258747567	-0.002472187377226758	-0.03471194991022553
-0.08178706235058518	-0.05549502751930517	-0.09450359045642039	0.01145626194247897
-0.07612863106421223	-0.04549406654081585	-0.1189238466412901	0.1696990312489553
-0.02198481761296946	-0.05142284856328912	0.04221118782595503	0.04118940375979877
0.05063446011084084	-0.08034624132685238	0.04497507642164837	-0.4060262377949846
0.03118950270298981	-0.08777901305443102	-0.0738014918140118	-0.4213135325047758
-0.008164341870614069	-0.0632299745745729	-0.008929832018357108	-0.1356385136042636
-0.007454466606443663	-0.06757575828399175	0.09400292105229073	-0.07121667266953471
0.02473226077078254	-0.03979229438300291	-0.03093493733976384	-0.08835262846871386
0.07907799297948497	-0.04416706912451515	-0.1468475385897309	-0.08131909522870007
0.04595680194234181	-0.04498540338429868	-0.1078286323464326	-0.02513217348411872
0.0139423719470188	-0.05228832608850603	-0.0176771159644624	-0.01024236630844337
-0.04275336111941678	-0.02876977296352223	-0.04289943227531239	-0.001246170172390218
-0.07955541992806564	-0.0332923666688519	-0.1689428924384857	0.02170330680870571
-0.06968137522528235	-0.01629812628000939	0.07046231519213118	0.1148281304082071
-0.02715090037931381	-0.005621853465753039	0.1791002882618829	0.1347632615397471
0.06107287324747773	-0.0268888213616448	0.06059994877098449	0.1317465284015166
0.116299698796451	-0.05548608559925532	0.02762715489408341	0.06685755128591431
0.05044961523987915	-0.04826114020188856	0.02368554630859395	-0.01617632685311686
-0.01263122880412976	-0.04768892338072182	-0.04442257578493004	-0.04961389881980807
-0.0184693915781626	-0.02771379778548131	-0.1115283807879156	0.005813590429250784
-0.006199700898379979	0.01343349641619249	-0.1044862201211783	0.1140141976489697
-0.02698822583543268	-0.01019311795276789	-0.1485578885209341	0.1076930825339635
-0.003749327241047944	-0.03434307636594389	-0.1726950746978675	0.02692253098242977
-0.004734574412242678	-0.06787387144295817	-0.1220292787708516	0.02314831596478596
-0.03661273359663623	-0.05643982808910022	-0.06920475756217506	0.09461964338121337
-0.03343954819241866	-0.003460911733456236	-0.01202140817373581	0.1436027553086849
-0.05028551187154125	0.03945250112492247	0.1033224340876767	0.005958607401522352
-0.06008703599426107	0.05867030232686335	0.0660361280125651	-0.1186811722018235
0.008409955067224688	0.1025778213396062	0.005296379891576573	-0.09013228665653743
0.0267487463712627	0.09577837689628196	0.09229620177447119	0.0291587383080142
0.02326671651620415	0.08718184381079573	0.1276489599452932	0.03271204154126156
-0.006215069347061624	0.07835167690705135	0.05309596590192103	0.02543814039018467
-0.01538462636678466	0.05877575632787829	0.04967129494899859	-0.01423989461977464
-0.0007642899059922921	0.05688228768942998	0.1377474387304048	-0.04273098091852
-0.01171502672289976	0.05658261105874892	-0.03392610489752611	-0.04501416122421632
-0.0199739707001742	0.008295988173472442	-0.06817766411872836	0.04105444175467977
-0.03953573163446285	0.02076678619511859	-0.1248970528695458	0.004067923359344826
-0.02370639086891989	0.04194623814777371	-0.1101565641189461	-0.04568288035237036
0.04527029803903114	0.09518341736199668	-0.05854175606570941	0.01994029745624257
0.1081538086993409	0.07975653165015431	-0.01219357024820352	0.07779693424914669
0.09021736835953784	0.04282460830827226	0.05357398015877057	0.1416037034826743
0.06450190644992611	0.02718450588395414	0.193955307011944	0.01153929214256543
-0.01752779150783973	-0.03718552703649289	0.02184983990149505	-0.008659608406670198
0.0100233262268758	-0.02622139046969631	-0.08520906979220262	0.01879770244090371
-0.02465089014169992	0.01565816548683547	-0.06489112239387401	-0.00831061769383042
-0.1100308938492707	0.00232017776018009	-0.1232086227247216	-0.04856482115954584
-0.1149687620737899	-0.06488824058367537	-0.07565128613025894	-0.07642229117222264
0.04017004256636751	-0.1203095655957266	0.06156794063851533	-0.02162872779117969
0.1906148607675655	-0.1296793021876358	0.1582038705644872	0.03126035494219624
0.1002549446411025	-0.05637397779082635	0.0989084198731775	-0.08632107888835498
0.06671726539066705	-0.02512238832048561	0.0379269385882683	-0.1359284952050381
0.04980053818977113	-0.007697836794380912	-0.09473756846910594	-0.11676148558888
0.001386231713818184	0.00860386942037516	-0.1350155446744345	0.01486539635644388
-0.04964053159576479	0.04378792462816755	-0.02399815408300036	0.08527412139078605
-0.03547556490108437	0.1038336525461869	0.1314160167511156	0.09807014677859392
-0.02630744064171633	0.118649520185638	0.1774067766040667	0.117394442471737
-0.02626490603453307	0.1123320151803359	0.08691423850508526	-0.02263190123806193
-0.01731291491566633	0.04746077971598894	0.03124467846822709	-0.06332032979785564
-0.06552398126347037	-0.06423582077699483	0.003703676345761946	-0.03614416375292649
-0.1368302753084853	-0.09621031076931469	0.1177588480122888	-0.05353757578078615
-0.1123484443103147	-0.05103396076994539	0.08234481579761792	-0.0651492765788054
0.01496294203593902	0.0169000487861057	0.1255057201894982	0.0305945468764001
0.07007129285736793	0.01985277641861771	0.07098401827421716	0.1455491599347636
0.06073271578896929	0.03594594229444174	-0.03197794039015844	0.1586277652058831
0.06353185223963101	0.03275979203152194	-0.0913810751154734	0.06974950822554099
0.03516746032371673	0.03197705821636063	-0.115047137908402	-0.1555433600546179
0.01934004622805132	-0.03348831682121748	-0.1200685029530755	-0.3191031285360577
0.008722121839971132	-0.05744149270022952	-0.05222246987208448	-0.1197931065398995
-0.01150995452991203	-0.08422935591182247	0.04195635630318638	-0.01686604418437532
-0.02113229180549465	-0.09669205362118585	0.2257985516212316	0.05912702488540673
-0.03180086146681636	-0.07061964887202769	0.02122938346172882	0.02301264310599023
-0.0110510405840591	-0.0219471978125798	-0.1414287022686158	-0.01858363114168732
0.01631743427925808	-0.003038839433438548	-0.07173614501892768	0.05037697710846504
-0.0152956120481688	0.01080886321030187	-0.03838374220186363	0.0436334339095665
-0.05292456629779791	0.01192406575181067	-0.07027186702275964	0.04587112593313763
-0.06557809585544029	0.03305229594418578	-0.08640912497204765	0.0515142938259306
-0.02720159533136355	0.04034570757916031	0.05669159486318379	0.06341006622764291
-0.03478394878870213	0.0002667585944253952	-0.030422738525082	-0.08726742641755784
0.006929128771926868	-0.01849774859908248	-0.07043326254033598	0.06299800686120675
0.01567219604474062	-0.01154156136205701	-0.07514798739691796	0.2199716321672052
0.03232667876372006	0.005539557214462703	-0.02732805857360191	0.141738722409615
0.01594616777161456	0.007920690843449875	-0.003179353105406144	-0.09171010182958002
0.003070689550505777	0.02505640347034314	0.03252793635541983	-0.2749270299611355
0.007589861927302937	0.04376555459613829	0.02567325685919929	-0.1198074571154603
-0.01560584482671555	0.03087612624782541	0.02750117773560036	0.1400063175260989
-0.01053144198177655	0.01798394813770878	0.01204250533473324	0.2627386115232815
0.06687651346105219	-0.01897441849541462	-0.02804919434207834	0.2059742347595858
0.05181806020255204	-0.03732524034318475	-0.01043648223272131	0.04611732522388217
-0.06171285562011315	-0.02435964961777503	-0.01943303300632179	-0.1750301439057116
-0.04047693246383306	-0.05069943661922406	-0.0517233746474761	-0.2861126810741032
0.06450725448640182	-0.04922321816424758	-0.03395543588334687	-0.1168466651154916
0.05825815112443802	-0.07232747326767264	-0.03394845087846136	-0.1314014545231219
0.03319680847535008	-0.03896030923807092	-0.05614208947786509	-0.1087500758755546
0.002478798455313029	-0.0349605048851722	-0.1946431442526299	-0.0950036134477712
-0.0005493188574519706	-0.01717457533397471	-0.09658688035499606	-0.07715367195416316
0.0001677907066176857	0.01998588927094187	-0.09572592924396162	-0.05538540304968115
0.004714387403076985	0.0374676420079393	0.02908087752771024	-0.05180089543179034
-0.01631572400203458	0.04886577508976531	0.01155207823223441	0.0007944839603703325
-0.03716352594502553	0.05811157031187368	0.003014445454484859	0.03234229315243919
-0.06216824235791678	0.04021878731246126	0.1542019529859252	0.08172611109828813
-0.03393060352487347	0.01280550960678102	0.02769156073273703	0.05234689470757282
-0.02798618634003687	0.02527480882517152	0.1532541052520645	0.06000229720655408
0.009991223567890645	0.03340445690917708	0.2496139267492722	0.1220936696012785
0.03449618874654793	0.02840689120738604	0.09868808495779395	0.09307532129547685
0.01039893329158986	-0.001860325233519782	-0.05386720684792801	-0.01499829225829944
0.04474726660515476	0.008239385877936146	0.04069135351520526	-0.03567313457429116
0.04666098730382369	0.04042639466984788	0.1530820194261945	-0.02854090546679875
0.02120532428168345	-0.005955085141456656	0.05309294659929036	0.04377914825834339
-0.0007605378597420644	-0.04735654780206632	-0.0005483131926993568	0.03644369641571814
0.00887165317344495	-0.003015573085669229	-0.06002822562404	0.08016853517057353
0.060259510066966	0.0200913026994986	-0.09347610676911008	0.08924673477632945
0.03424745911006296	0.01463481936304414	-0.0217057029322384	0.04980412199047977
-0.05409224099397685	-0.0003245120188898859	0.3263043828479257	0.03301403892182202
-0.0812364639019202	-0.05873032059909656	0.1745418979361398	0.03462018282038707
-0.03027266677681589	-0.08075866103484711	-0.01469381500832071	0.03255502324622238
0.009890687087548665	-0.1113414767968117	-0.1527807131586689	0.09325334833607732
0.03329712049109236	-0.04608860293844625	-0.1491652670059027	0.09905584466724947
-0.02928608677615537	0.02127934673246552	-0.1519241318530577	0.0426224211395835
-0.01048114359189144	0.06639188805360616	-0.06451536737315938	-0.03400277901207149
0.06558936815902519	0.06028353628621034	0.09623874352857006	0.01750086096155043
0.06127837259306536	0.04487673872865515	0.1288783510180677	-0.01932025680276213
0.01358088299238806	0.04298129548702213	0.03858910192682877	-0.04916727804646971
-0.01053613534897658	0.07124923986615944	0.05855345282775091	-0.04702934517556785
-0.02080955355333139	0.05371591193777041	0.05797859949543761	0.01021981743668519
-0.05029817696690021	0.01571645733217349	-0.01804662964175704	0.01223894594062319
-0.02682355842239743	0.01232481642024004	-0.01932025419173487	-0.03936706536906254
-0.02698468805105661	0.0006453127573196424	-0.04440862105504848	-0.06588155630778901
-0.03341376394575104	-0.01970266219277805	-0.06677833405213435	-0.07124416950638841
-0.01638195912082932	-0.008463680941737382	-0.04719693567243599	-0.01652652643326705
0.001986869564921462	0.0009283700580716889	-0.05716372860014628	0.06179023668241594
0.01177807788490651	-0.0001081943857409664	-0.06586367559828978	0.151506673513732
0.01960237330159209	-0.01143854375951885	-0.09955314706288711	0.2064339328237627
0.01667032439207306	-0.02371236041107771	-0.1771058175844533	0.2046639478255856
-0.01687277553072274	-0.06249209470103542	-0.1449706232797246	0.04018366167782083
-0.03867601431930406	-0.08043250274317423	-0.08509988328929378	0.0009873432948534779
0.002850414579635311	-0.06957665134100083	-0.07397704962840985	-0.1061407408656787
0.03204157616297894	-0.03457486980303466	-0.05795822893194998	-0.3191212695612671
0.04613757523876701	-0.02997002965604357	-0.1075028615278572	-0.235580129207068
0.04834687951941902	-0.022926104281574	-0.181067314700946	-0.1459570839350812
0.006498143254273218	-0.01803574691700907	0.08400699138437823	0.01395490281667524
-0.01276231160658159	0.05081070315692945	0.2208461248084045	0.05384022975432629
-0.03290080122450069	0.06504832891897716	0.127376627055322	-0.03646264860554342
-0.01168196909345176	0.08611294772748665	0.05508280741330165	-0.09306874847930589
0.01141335632838918	0.07978739619931464	0.05187973815550133	-0.2609083298917686
-0.006777663774450073	0.0602870815867732	0.1768926313803731	-0.2126307914427448
-0.006419551865201564	0.02933965717726122	0.09330416596650246	-0.06780669766045723
0.0111439207236641	0.001332110465804469	-0.003741907542836462	0.02378431695850745
-0.04027989255210065	-0.04076760016807186	-0.08936987679469967	-0.01600983453811917
-0.06394816261927513	-0.05700039871360521	-0.1804657271915788	0.008162926344912797
-0.02620281138573136	-0.04200902559374835	-0.1182553646104293	0.03598507604332983
0.0007500431868214328	-0.04024372888255546	0.02293490900159944	0.02729065200028208
0.01642385213448506	-0.02358939366596614	-0.04678694706467017	0.113395681981049
0.04631935640135807	-0.02642229963345845	-0.06823817170068029	0.07684022022442148
0.007580025295111719	-0.01236306352672259	0.1095221883450055	0.08526289686376144
-0.07778756821483095	-0.002543070563174724	0.06349341732739965	0.007084557096236375
-0.06339022284548897	0.005975062555965141	0.1930523395843343	-0.03873684879044807
0.01759307326072038	0.03292902085531998	0.4343539817166252	0.01314608752047884
0.06029349545633464	0.05143888023134107	0.01786489433476986	0.02130859435771558
0.07128866903613952	0.03603101120287155	-0.06396549682288716	0.05566527236286874
-0.01273525875280905	0.01746842127783687	-0.01370972398294963	0.0408868351489443
-0.0214405518629066	0.06083493394130023	0.07179348138069601	0.08366416711435774
0.0422641085731558	0.04410132584952672	0.07808734310671522	0.06290691810187091
0.07678417352763137	-0.02772966235406686	0.05415555532660089	0.01495754174712184
0.03963047310371605	-0.07994997207080734	-0.03641485576725929	-0.05994462877800873
0.03134763037424966	-0.05698377462232398	-0.06224961193792012	-0.02845548799772395
0.01961528618769684	-0.03675683991690978	-0.01226583928165111	0.0004738534631849364
0.01850760895602993	0.009056565882561192	-0.01264298776455341	-0.02099952037868895
0.01120380346866338	0.02281937131155909	0.01377266485458884	-0.009357671522735984
-0.04965586857381429	-0.02437283547303419	-0.01302996896166303	0.04647639927948782
-0.01112394715908879	0.04935589410105719	-0.04771559665092753	-0.01277798845101392
-0.03999157270518631	0.04901204467343582	-0.04027739723257886	-0.01792986740083967
-0.02850712381604124	0.03403900243904068	-0.004612743234029241	0.02267611349195203
0.01727380200564144	0.01610580031463697	-0.09094110074826089	0.01034401700058761
-0.04216167832825671	0.05323524319838234	-0.1330266922009422	0.003862685520225044
-0.03675053691003995	0.02389781418233685	-0.1240609251493227	0.01927802954842667
0.0001547181999855592	-0.01311535731619094	-0.1184860793360772	0.01484802772400039
-0.002672558663424383	-0.05977397518750811	-0.1127609671807198	-0.04026384940636792
0.0003957461379338992	-0.0450828289010321	0.04251423971295263	0.0473073216245079
-0.01278951663910595	-0.004881402755480215	0.133350097830697	0.07045523724104777
-0.04780876123559692	-1.566403606571457e-05	0.1509243478828314	0.04421535829596718
-0.06213589810442932	-0.02408495595513106	0.06819182889941348	-0.02007966243610921
-0.02116140210870596	-0.02389616882030017	0.0441765937882344	0.00052988552248229
-0.01581077906710943	-0.03140358284268055	0.03717874025187529	0.168724763705535
-0.02270071461631729	-0.04065620928716777	0.08924117670269671	0.1435761055882801
0.004150160036652011	-0.05799711741381418	0.026506123687093	0.02140304989860593
0.05327787233517334	-0.07355443593752685	-0.07272006586354558	-0.1444730944725394
0.02052794766876767	-0.05288151009871572	-0.08514844121623588	-0.04021150423895369
0.01402633375111253	0.07422755272216347	0.07022817245570555	-0.05245885289939896
0.01123570693992242	0.08717998737659458	-0.01280415059887102	0.009490626647998506
-0.05804620758270944	0.06801486408193898	-0.07605385625913506	0.04451067115759936
-0.1240614455353363	0.02723626556300408	-0.1819310144273071	-0.0117742310755002
-0.1029009443631326	-0.01515153685522142	-0.1993132809904564	-0.1314661459516459
0.06185503922175756	-0.007609120751311709	-0.1066554994094185	-0.09562695329653008
0.1081330158908486	0.0003077451882825201	0.1293894843776062	-0.02099558009961093
0.137374274854613	-0.006702583582021985	0.2089543541185769	0.05706529310232004
0.0772134889758769	0.005210044696713974	0.2146557014629075	0.1149575991554532
0.0398486848026389	-0.00362505138290722	0.05542374901867751	0.1510368712464771
0.02012718124763823	0.007029904040744337	-0.04648049417485871	0.05932065504686189
-0.00732964468718236	0.02469114501813338	-0.01921894182042738	0.0304896359268125
-0.006907486269819306	0.04880048514825367	-0.004452798323007419	-0.1240610138158508
-0.01851283328873595	0.04832690803369433	-0.05323986370030186	-0.118314886267833
-0.04206590819986544	0.02144180692300976	-0.146814399714156	0.08932777750971639
-0.04435648619457073	0.01510169037686025	-0.2234895305653151	0.1374838289908392
0.00559689312187356	-0.007668526660698057	-0.158083191284358	0.02106716884281264
0.01466641808365162	-0.03316180262214521	0.06623270657740095	-0.179344171300925
-0.004797550070647118	-0.08998546423387789	-0.006905511358460618	-0.07252170019256278
0.02053256689265794	-0.116134471247596	-0.0415302329298283	0.07327077866457821
0.04760749762594576	-0.124528093521165	-0.01787556054683309	0.09319062587900712
0.03226222053309629	-0.1041914393850635	-0.06972372515541368	-0.1240851484096637
0.02490688912818925	-0.05997971052070469	-0.04308056580718508	-0.2107540165944029
0.01960141860881278	0.01005874139567866	0.167351029801457	-0.06402074431640147
-0.01096212431033396	0.03570311051608876	0.1438710126837258	0.01558609463942223
-0.01039607633849426	0.06280644240864923	0.01622591771111215	-0.01519876535835585
-0.04890267584981096	0.1084032910482775	-0.04620162504558398	0.03508109483238853
-0.05874206617306744	0.1152553412111766	-0.05316481349696692	0.1419673762781713
-0.05336968423099323	0.1231944253957447	-0.08683292218019803	0.1144460472947677
-0.01822068637670234	0.1195787944336916	-0.07116475388623125	0.02307316455872324
-0.002854646087634068	0.05936939052682074	0.1082650435721127	-0.1235047266789091
0.02653390658900368	0.005620440771483709	-0.01333025533354707	-0.2027753491731045
0.03943748938604191	-0.008440945727423467	-0.00715843434582847	-0.1306155678502792
-0.01670852111611877	-0.007001291793493378	0.3123479704723898	-0.05730948373086063
0.01035218703945769	-0.02353402640127337	0.2529296353314039	-0.08623453431625223
0.01017713400853913	-0.04756197514138136	0.1698357144168273	0.02531469300834873
0.05526200060255557	-0.06010882744122543	0.1394802559459369	0.1560914830292842
0.063641428538616	-0.04829814490881761	0.2263705420039558	0.09166810117297589
0.03943535578727755	-0.03893143760912451	0.1488612582765561	-0.07221895084637833
0.04716332495164394	-0.02198196232577465	0.04298564782180957	-0.1547132281574315
0.06831279524228669	-0.01219162867627103	-0.04512093844076228	0.09572572524666823
0.0298426951426789	-0.03938397508481038	-0.03353187474847869	0.05423542604055943
0.001737749412137188	-0.03842768205201727	-0.03057150452055466	-0.02143018572125496
-0.0001229831081711708	-0.02075262717728582	0.03006083682585497	-0.02101140157948798
-0.01092231769708045	-0.001167366028307939	-0.001638408928342994	-0.005040479466565039
-0.08169972962150619	0.01305694841831562	-0.0216291890022266	0.04974556269840563
-0.06361458452420174	-0.009319003254214898	-0.05218721769119403	-0.01747127377665596
-0.04125312087875143	0.0119775396803031	-0.08424195611570044	-0.0002093292538214351
-0.08714018701612178	0.008065593220397294	-0.08825675366115507	0.004897613001275653
-0.09708273664794577	-0.009174076470859082	-0.210470838945007	0.0453240109748544
-0.005086349443333483	0.01484951874555598	-0.2794223968055805	-0.02363921362875435
0.03196682108405638	0.05074943673234184	-0.2574897885875973	-0.03706310738890533
0.02652507426252	0.02649472590037206	-0.04868441477944761	0.08080877869311796
0.04955784608412227	0.0007456228984049802	0.01728178794307543	0.1403625365710417
0.002175991568068254	-0.0002586074466104813	-0.02702056028492723	0.2298626249747807
-0.01643292617472359	0.002211836256254752	-0.07625468017644461	0.1792595184089454
-0.02407982880788763	-0.01113384491985027	-0.08030040564598898	0.06720748101299902
-0.02402626970529945	-0.05781641400978976	-0.09236699731624033	-0.03832684179164445
0.01108596020713969	-0.06058168885847485	-0.1097619310842352	-0.0891418707734626
0.001659761713503833	-0.0798862507755968	-0.06994971209920493	-0.1649315745597132
0.007027448263784833	-0.07760034716638281	-0.08692839529498608	-0.2051958649721031
-0.01082717370113637	-0.0602945880211198	-0.03139995067899101	-0.07909520799952968
-0.005428829268115942	0.001536239554832556	-0.02414150902142524	-0.08618349031962809
0.01396160403891885	0.1010989973031536	-0.04962521335947865	-0.1269585163195078
0.009510401960703262	0.1142389779380002	-0.09839917140600628	-0.009359092458851821
-0.007205040587392257	0.1150999334770526	0.1122704930543984	0.008482758766690326
-0.01677099165574085	0.1175503240094506	0.2929838780802907	0.01571168586239967
-0.007647631033886331	0.0465170502018533	0.13346995774971	-0.007164189313906682
-0.01801108405770631	0.05060107155763383	0.1190417905219119	0.04683706536880289
-0.0335600254758731	0.04341566581147637	0.06230354199934577	0.0808251506138792
-0.04866367493480527	0.04871952889818201	-0.02632353512372375	0.06328512391131988
0.04893675267316906	0.0162559996099236	-0.05337691944321828	-0.02118925704354183
0.05157531995398517	-0.02138383858732132	0.0003848631907619687	-0.04489479009192047
-0.00680329543838522	-0.04354322099891714	-0.02596458793654259	0.02646850801030149
-0.03795134031413283	-0.05885029136553636	-0.05585197863247317	0.03453998436003795
-0.003952618507382377	-0.06036046263143324	-0.09211813300227596	0.05337671587858027
0.02984981676135832	-0.0541906190882494	-0.09672167676822836	0.035106689586596
0.003806094164438518	-0.0264196432693048	-0.05191058823069548	-0.01340412800759449
0.0136361186760922	-0.02399697482907576	0.2760175865594598	0.05873729772247122
0.03916482537840107	-0.04861252357593829	0.4813121137569094	0.1377745321370476
0.06193929077450491	-0.07995218362946721	0.3697318234749624	0.1074000146789617
0.02823163769327807	-0.03035765993291484	0.2183134056261991	0.04576869550904085
-0.01402509539867707	-0.009909334060942184	0.05558173563257445	-3.315583555950005e-05
-0.02444088281684931	-0.02816689742630881	-0.04076554292228454	0.03966925723137724
0.006470494085208339	-0.01635808254898675	0.03202903452016024	0.01105402801356853
0.01346096046732224	-0.008206145455628752	0.07961304419623992	-0.09909123683003535
0.009109540184987193	-0.004876351266284217	-0.01397513559110325	-0.08390288466213051
-0.04457144330704649	0.009128534602639196	-0.08240235977916165	0.0003082057012089327
-0.06555986380143111	0.02831544006250158	-0.1475343886527357	0.0412727846602141
0.0295093671597072	0.10906548966232	-0.1265161717771642	0.1067849776040056
0.0222076770810278	0.07857872593579261	0.04107484868952689	0.1679879954586737
0.001714645388626608	0.07780693486879858	0.02264975236678333	0.1310407206859646
0.02623297918695827	0.04235885017091852	-0.02938533503633815	-0.1672866335356798
0.04743502408044735	-0.001527015179085203	-0.02463599733645142	-0.1997102615037608
0.02167472848349977	0.02400312601847817	-0.06633404026513597	0.007160745933464486
-0.002391717340558048	0.03746414259735225	-0.1068310050091529	0.02319427530057004
-0.01088657652989424	0.009624106067035218	-0.0517953964825114	-0.0140647126727119
0.01704127479175826	-0.004375305755180756	0.08074305168376557	0.03630008652851086
-0.01487076737320009	-0.02691704093420653	-0.0684281127262179	-0.08447387629527325
-0.10105887285481	-0.01321887067797887	-0.09497682372533033	-0.07500772013560998
-0.1291439465888891	-0.007757421516614905	-0.08039203741448012	-0.03662770310254999
-0.1240356386010902	0.007131216870311502	-0.08356621273471231	0.02496459979032003
-0.02667521268826983	0.007168805651190361	-0.1326534056273485	0.009497109113973917
0.03210998662804478	-0.01635977003992256	-0.1174278776981661	0.03388201550415963
0.09318651135165941	-0.03301407394574696	-0.04887158084171687	-0.02850328604015164
0.1176394355841944	-0.01595695411440478	-0.01820312208316217	-0.04638652177106271
0.05237218462446491	-0.02047015523115501	0.0264239454733296	-0.1177471155560766
0.04170514508692753	-0.01742891369149937	0.01984032123848154	-0.1178080132416549
0.0284768624729757	-0.01536970587718212	0.04108553489271653	-0.07777310409796732
0.02678306609922467	-0.009779584782604548	0.006316198058640847	-0.05825618460139338
0.07242182833467868	-0.01449966903552726	-0.03997069193360692	-0.07675733971801936
0.009897197308956216	-0.04359790262914795	0.006424449696337279	-0.004606533688946279
-0.01880202557995093	-0.0473907570228186	0.02726736481114742	0.04708288936142081
-0.03107378340242874	-0.04040754641762687	0.06948286280252311	0.04768176362820836
-0.01676057790059463	-0.04597408306615967	0.1144535172544209	0.116474845119417
-0.01620868767246019	-0.01644271445434513	0.06410578336640151	0.1162932483762954
-0.0545899046411882	0.000653779502434794	0.07889398068028494	0.05230021867312945
-0.02929258524050733	0.05497486699269034	0.1303986946255723	-0.03070338295715284
-0.003155517499462246	0.1020806340913191	-0.02157068366611798	-0.154968525359456
0.01400353677085923	0.109121005609601	-0.09028098954978173	-0.06520047075266527
0.02105253717146109	0.04507712928016384	-0.07596155252315771	0.0451045901053871
0.002152874601899571	0.01681597766247774	-0.04918871040853644	-0.07201122689285372
-0.0355033003549273	-0.01682751809764825	0.01095700344312895	-0.0767122520724369
-0.0129630005109891	-0.04540698854470014	0.03774088960560103	0.03119124415452332
0.002145192882443852	-0.08638851221987778	-0.0476167214965604	-0.003413295790860262
-0.03339200391043959	-0.1240699046490117	-0.06083988022750031	0.01497160597854634
-0.02646824725943623	-0.109377696624205	-0.07115430784737618	0.1347461648168854
-0.009892458385176751	-0.05303672825717402	-0.003410876744437074	0.197589554395044
-0.00868032223639701	-0.03130144257944963	0.02818964523026164	0.1606012143072524
-0.00523756974492594	0.00294881825339929	0.01526372882285631	0.06937075955859334
-0.03724872584461673	0.04438619483210554	0.04297349619924349	-0.03795865869833935
-0.02593012532777278	0.08902494172508577	0.1232753023490407	-0.06079271996157529
0.04546211131285148	0.07196088388668888	0.02403203638906355	-0.1258371500512519
0.02600083171277279	0.07671989395414924	-0.01936248268107938	-0.03566475100641611
0.009850617179806233	0.06364709396299507	-0.0867781329782488	0.02243290567877637
-0.03041125173218186	0.03048039748282372	-0.02940965732616322	-0.05969121605498171
-0.006994605571143236	-0.0002550679453120013	0.07157515671463041	0.003156457009405404
0.03283009403329733	-0.009815387527927027	-0.02258666393222318	-0.1316155543119301
0.05444067654823878	-0.01649254019284388	-0.0436542044251066	-0.162773735707352
0.02224404152115182	-0.02231083137633995	-0.01956133926703261	-0.06122636637197267
-0.007732815866004161	-0.03414960571816832	0.01074378332916308	-0.001004385438734211
-0.01753175425677076	-0.08496234316300597	-0.01992238124288418	0.000737539080038695
-0.01235808420260254	-0.08050856912775159	-0.05607089289389874	-0.006464164451566201
-0.00626661370579719	-0.05555784524701184	-0.04248456698189966	0.08394234720244063
-0.0272213105048296	-0.1803271097382534	-0.07211016568770012	0.1537307981662019
0.01467458220215959	-0.08294851917235259	-0.1671460600407762	0.2254139954898065
0.07153209405163394	0.03195137298044294	-0.1808817404805347	0.2546855849382219
0.0261538217610669	0.09002319660467567	-0.1096488316018292	0.174091901297569
0.02232849395886007	0.1155990058894149	-0.04824586503900698	-0.05417651031467748
0.01298486312254224	0.1585839086860503	0.3104246501170707	-0.1912165545768237
-0.01210627411540698	0.1876927385795911	0.3688609757905098	-0.09617679010668737
-0.04363012575564588	0.2205894907838035	0.2470034335240176	-0.01564995917945415
-0.06185013316151639	0.1612617730203531	-0.02878588151562103	-0.1536650909475419
-0.04829456641607827	0.07113037521052977	-0.1346098810451732	-0.09346026055991644
-0.006944956733711804	0.01886805178286521	-0.0921331857405904	-0.009865888629742494
0.007714660125732697	-0.01217502531742817	-0.1756116011323835	-0.0977643721158495
0.01095631475354931	-0.05660887236970789	-0.03235006542488762	-0.06421091305008994
-0.02593683584619441	-0.08295813083616926	0.0876298349618818	-0.01422804901916404
-0.01701046904917591	-0.09076297467802007	0.1469918751268466	0.05254966124504787
-0.005051444066177326	-0.08052859372415053	0.1118223109744178	0.02666981589308044
0.03573775228207723	-0.03320544373670568	0.1373651091203401	0.07543618350880554
0.03839623973841466	-0.04483116840976928	0.1392789864459821	0.2125696416596346
0.02713665374948119	-0.04635658002831701	-0.005627180064039474	0.1535515058326621
0.02046600032555188	-0.03729613907849325	0.005883461352267718	-0.03008354264253392
-0.007564448421900823	-0.04712626103850326	-0.04053042329032322	-0.1726658648972627
0.004589203681377487	-0.03640676714629574	-0.1816886022229302	-0.1155961843954673
0.01849225980250429	-0.01211652047357209	0.2213593602342571	0.002760528569594554
0.02018331596184546	-0.004374851629596551	0.1210658482085799	0.10558002502819
0.02549841617043075	0.007243716091694146	0.01055026018485953	0.05277311945577173
0.007699172974613736	-0.001805764602714176	-0.001469335349364235	-0.01454889421363129
-0.01676200435846426	-0.01316078635944597	0.09101159151646826	0.01733862661524342
-0.02298849765556106	-0.0421584341025824	0.01146012565330734	0.159551198060527
-0.03350190327482467	-0.04226154776269405	-0.122638797295234	0.1475090044496921
-0.05274711600790432	-0.05417166868391969	-0.1337588353856615	0.08268872950571914
-0.05281683899150715	-0.0460327869388766	-0.08377924191193789	-0.008715486219082117
0.03344097168609905	-0.02370315974286867	-0.2061524283855642	-0.1238686584318264
0.03814455163215116	-0.07111860386132275	-0.2356841049361802	-0.1885713703503585
0.05183020875259026	-0.07760265152291826	-0.2935012678407752	-0.1292193468693944
0.07123004262785164	-0.06417244803794364	-0.3176285619924011	-0.03365294908811099
0.05395362255297895	-0.034546164235007	-0.2958782058455724	-0.03387473363561278
0.01954185355641238	-0.01572368031068386	-0.08616541221625595	-0.03521490815329104
-0.05739447964923009	0.001394415875542372	0.4030458004925873	-0.03742601237473164
-0.08297475454103831	0.03993924714643687	0.04043113354908423	0.001946288367124025
0.0005387570392902876	0.1015091121880696	0.01728865164833382	0.01853258426127193
0.05982232899078564	0.05436472237444871	0.4062400565310568	0.01437099751708124
0.03316694330182147	0.04048227994957918	0.2699992273363874	-0.06685563108815096
-0.003689555807149766	0.05242538111387	-0.07313380296662282	-0.1318507163655812
0.008541520277863333	0.04421838488883291	0.01609070690973081	0.01099846051546655
0.02466273612912973	0.0286587293086642	0.5519183082014896	0.1777248762513008
0.01880792179439156	0.01473510872614068	0.2313320852087022	0.0572444747906594
0.01563401352142316	0.03466479469904966	0.07675733171965952	-0.02485387177499662
0.004634824053514242	0.03215793895300902	0.1226809402984431	-0.02290424927002376
-0.00735945204388775	0.05908619657832697	-0.02935013411193325	-0.05472305461136873
-0.0290555177341066	0.09371965953583201	-0.238124726338048	-0.07466828618727332
-0.03967749564027356	0.1031710210911241	-0.0427405961930563	0.05121431006700752
-0.01476644730174504	0.1030361819204536	0.07078013772487571	0.09191535281786925
-0.01440822034832042	0.0749046752262862	0.001013586543575066	0.07891220453031678
-0.03755997295317259	0.0192324360912732	-0.1897786526357808	0.09302759077397382
-0.05967990555545454	-0.05036510539233018	-0.2080477488760035	0.04088429068388985
-0.04002661952794249	-0.0805101132246339	-0.1415388330936981	-0.0391034391169074
0.01221014715058524	-0.02311183868902809	-0.02145705662354192	-0.06255997743536235
0.01871068078604445	-0.03717039163373557	0.07743981438265728	-0.02315293985862652
0.03170003889819067	-0.02007287903273565	0.2357847210679126	0.03350338752196447
0.02934077375725683	0.02140366277028756	0.2584524613096248	0.1099001126300422
-0.01242642825917247	0.05868486698628477	-0.09766876438760975	0.1084296223524234
-0.0193835607800228	0.08221462507308028	-0.2966567285690154	0.09849912370171948
-0.03533463634577577	0.0825476127989533	-0.3104969644439629	-0.0958031564251416
-0.05516691009354203	0.01531203620574668	-0.1833831893163788	-0.1636017745917411
-0.06143762261182711	-0.003078879559063114	-0.2443103221762424	-0.2060105321445943
-0.05809939515802513	-0.04250381221265929	0.3175118329069773	-0.1257532612490386
-0.03295384516016824	-0.07152157399978189	0.442994353369517	0.04622884772463713
-0.04283202225657236	-0.08375768569069141	0.1003491600307705	0.09356142987008288
-0.01169048578272178	-0.141787604402541	-0.06093600403536022	0.06043790866008473
-0.0185568696379352	-0.1917805787821424	-0.1424702860630673	0.05521761321449904
0.05329223775015141	-0.221617383945635	-0.1296267978617604	0.04300328779091583
0.04668265066834761	-0.3015646770780076	-0.08556848567023111	0.1610172848882714
0.06061365003847947	-0.1948363055334308	-0.08126747107904431	0.2700040820750266
0.0447496112724982	-0.04167861173203042	-0.02460424535907663	0.2263416178673874
0.03643460767861048	0.09488886189203996	0.1785514996979118	-0.07720400787774709
0.02618516941141326	0.2323930526915626	0.1217681544325456	-0.2501528776085211
0.04384995771638862	0.2429961466173276	-0.02623422253885265	-0.189441617908084
0.04275317221524227	0.2340830002085332	-0.1461302639911533	-0.1453035226499035
-0.0120898337098331	0.1748922193946758	-0.1399567574342034	-0.1500653078912858
-0.02691210374165477	0.09595017285021425	0.007874587092156368	-0.2179349424082118
0.0105809436435246	0.05593369008849808	-0.04261002695616799	-0.0720659066763088
0.01851923308196421	0.05472565250718298	0.008697544428974583	0.1582717927108632
-0.02369054117606625	-0.0232485380747891	-0.06982088592604227	0.09198407217641774
-0.01617740187957868	-0.06694647817273011	-0.2597098127479943	-0.0628284969077441
-0.007921285974780468	-0.07399622294270618	-0.2041769921860787	-0.1299929113028091
-0.007070660321485303	-0.1006208795139373	-0.062249231048911	0.02161235371435174
-0.04734619794153712	-0.1274898595135725	0.07704973960611658	0.09843635889570877
-0.04980587281214038	-0.07474636811623993	0.1857446958748928	0.1215419530510628
0.02849507619027626	0.02946030050136	0.02586825128621777	0.09002169863278182
0.01493110372513383	0.08080499306781273	-0.02317861867132004	0.08446453784003673
-0.003398521152078429	0.1300713740115419	0.09130176974589282	0.06038674899706955
0.01491140876008098	0.1357600661824396	0.05522807676973149	-0.1265422269751334
0.05962386804409554	0.1447176786808145	0.003319523730796884	-0.2063052630396872
0.059469774452127	0.1102996966957768	-0.1116900005060863	-0.08995481528261726
0.01316455460572353	0.008984767001916704	-0.2042400953598201	0.04108426441424792
-0.03184083736153012	-0.06130694532340655	-0.1318794492061237	-0.02792237205049332
-0.01069965306342906	-0.08960917779116813	-0.1301717809209694	0.05445462633313395
0.03839485103984334	-0.08273169858165473	0.2987453240201997	0.04342160926272282
-0.0045359801449049	-0.01045341091501618	0.2158580186059114	-0.02047977837060927
-0.0480411106213819	0.009516812800987354	0.07490908492789945	-0.007040302610221334
-0.04049125642736816	0.00499735247272315	-0.01995003905866366	-0.01174778971699382
-0.01490176262901025	0.005275628402486542	-0.06049551788846914	-0.1041769630338388
-0.01606852209639443	0.0004936973905483972	0.1583027608531511	-0.1078342668327337
0.08471103384914283	-0.01908698716746358	0.2857645452554906	0.06482555266893328
0.1080891854359004	-0.06389980941913136	0.3357767187830674	0.1189631535862798
0.008888670844994711	-0.07112159302834262	0.2315956568501294	0.07550127159131753
0.01084405411923936	-0.0738306575954709	0.07807282558104377	0.09263330718541939
-0.00725902295014924	-0.07107792333523837	0.04729553073109274	0.01132064643338758
-0.002344732065328348	-0.06341315625872669	0.03413220369317773	-0.01661919565157428
-0.001902233685433292	-0.05252047606374504	-0.05458040410620542	-0.04346089710975853
0.005768948268660642	-0.03471133572895678	-0.1769224542117043	-0.03127690030844356
-0.03286651270535236	-0.1305542020082175	-0.1257694714557669	-0.1180046488470998
-0.01328473079067929	-0.167142676251114	-0.05839245394265598	-0.1115301514609075
-0.02397411179596584	-0.1454213717419933	-0.03092021152651026	0.03665532517693599
-0.04153730985729082	-0.06633337456705175	0.04341297182253367	0.1564286713797864
-0.01673382983183704	0.01956444182308701	0.04311356492837762	0.1510579835955462
-0.01742691408512829	0.08192016264475084	-0.04133517370098735	0.08884690758365846
-0.02734272560024449	0.1185315326667976	0.003092078277417575	0.114756757190824
-0.01936337932626649	0.1405299754068495	-0.02257655225954232	0.04481466694071241
0.01264326737375	0.1344356325103998	-0.007033921569888224	-0.07573511035688429
0.009653176266324436	0.09978739089702046	-0.01484285041164357	-0.1110152145309078
0.00369360424880414	0.08697324842380964	-0.03659966905305923	-0.02799378273892127
0.02558737760365228	0.04809214168271847	-0.04680595257011654	0.1180662052584221
0.03902516836593478	-0.007944263400809486	-0.01672504206243292	0.3963091344144141
0.0428301163200375	-0.02561796065044985	0.0453393167090998	0.175078161372849
-0.02111211808736818	0.002883724816206282	0.09660271954452154	-0.07622939396053781
-0.03324605310506802	0.001107319036228537	-0.0230643421110707	-0.2108021283476531
-0.009552590675152703	-0.009717940826221322	-0.07197475209668362	-0.1854434274549541
0.03638109627733416	-0.02010888164805522	-0.09528893766149812	-0.1551368567953421
0.009510591095665545	-0.037260284861491	-0.0485766167731206	-0.1512626143241612
-0.007372973690728098	-0.04365148225211813	-0.0634654165202904	0.03598406917545037
-0.01394969536717564	-0.02630252486986119	-0.03345749194416488	0.07021378721509813
-0.01371064017199915	-0.006168725261713462	-0.09667327400328166	-0.01027865205213559
-0.0276653773724441	0.006787562202101419	-0.05012272448696597	-0.06073580013908893
-0.05452963315321718	-0.009700809556652312	0.05136280469679825	0.02153242399343666
-0.02535662139418667	-0.00412049471060124	0.1293315163017808	-0.05954528963243361
0.08053623147743152	-0.01297619132647355	-0.006032941057146409	-0.01561433143645899
0.08414931596153225	-0.07259252330936863	-0.07859299668780707	0.09157323099656586
0.06900475265722175	-0.06002445090928934	-0.1004012581729293	0.06889385863836776
-0.01256354462533001	-0.09741597647496095	-0.0641766132289112	0.03084342172389771
-0.06658344951338949	-0.07010258823671627	-0.1091762520617851	-0.008787494658482314
-0.03832188284364417	-0.006416903783412267	-0.1084611859694466	0.01072282624115592
-0.04277972392281363	0.02638138065308312	-0.1174914378549991	-0.01488711696171431
-0.01923787202814912	0.08387529850684954	0.1001963602894891	-0.03584807414692046
0.00693483466181896	0.1303023409046408	0.1950395537786702	-0.0217526364555826
-0.002472207741493191	0.1165646723488226	0.2178945876184521	0.04139741094361692
0.01796251396989709	0.08623695091320763	0.1820372536389603	0.03076620653291736
-0.000968389382690935	0.06965148293768034	0.08383945210369702	-0.02815910289265525
-0.01303562003415287	0.03398963549148945	0.05240838354623205	-0.03448315291603756
-0.009757060042179633	-0.007190219937714967	0.06181592358704775	-0.03498530205654678
-0.01336151827655185	-0.01973491304419457	0.1144550464529376	-0.04889101561206615
-0.05216328434778249	-0.005702722670221944	-0.0003518199851312762	0.05771073900437404
-0.03902219555885012	0.01238662583969206	-0.07608130789322542	0.07418127797791371
0.04541565843610986	0.04259155875164766	-0.04574282705899171	0.08933348537890413
0.02376008668871155	0.02679788351585198	-0.07379661407144854	0.02197545342049379
0.002309525023932974	-0.03153310235667275	-0.1583495705509905	-0.01526112786021015
-0.01357127065531362	-0.01388079353870637	-0.1732230802621453	-0.06728971719263906
-0.01599253616496505	-0.0021505271292586	-0.1487042077995433	-0.1324300595365155
-0.02296776450923507	-0.004796625302760702	-0.005646304240179697	-0.1093462736373891
-0.01550700079443218	-0.001740930766616174	0.2552420962861516	-0.007633920846566476
-0.01075345421262992	0.002514961029249487	0.1311955871514312	0.006761586751680669
-0.01335939722100468	0.007007751606975965	-0.03671251806267229	-0.01362012532212077
0.04154297272175393	0.02332545419514939	-0.0622965941496591	-0.01989258924531372
0.03365698383079136	0.04407076443522785	-0.0656173613929196	-0.008779881661155281
0.03433079714367385	0.03375760363144992	-0.0281301625003023	0.07744279976423912
0.05573744548211933	0.05567083471414248	-0.0186244185798518	0.06744808160839127
0.02185962989281183	0.07306306888229089	-0.007464938704994671	0.1148761508087273
0.03180601307567657	0.04747843050627203	-0.07858939884670103	0.0709831769300063
-0.01393994380852549	0.005680707529896861	-0.09769920661038531	-0.1324051868556434
-0.07424289419736166	-0.02075758507502613	-0.04770524920196602	-0.1173182040576514
-0.05970028045434963	-0.08373045216449683	0.0356963007479269	-0.02994120325231753
-0.01530904735537779	-0.09746712404039927	0.0310634166509241	-0.01707783196448592
-0.002583134182637903	-0.08002659366512027	0.06355496861998747	0.01160531228181588
-0.001887855312109055	-0.08422168535097992	0.1443637926939333	0.03804909569702124
-0.02467798704968377	-0.07241433312962844	0.08705126211100137	0.07925947242004829
0.002461707021010641	-0.02674255263044449	0.03928102051993783	0.0469988036977952
0.0275445413660536	0.03488660395955674	-0.02264363718399155	0.004720312489927799
-0.002125052918583116	0.05087063337124693	-0.007836072926081614	-0.04241719773262363
-0.012917201089734	0.0582638017469775	-0.02257502331651047	-0.1413723908789753
-0.00652157737771555	0.04726770704790671	-0.03414371240993598	0.02942531053709496
-0.008123314107127267	0.06927540049575749	-0.02869749933051952	0.09426621179286317
-0.002839184301756231	0.02619183460124578	0.06113634681313426	0.1934857913947947
0.009710895883447193	-0.03086945920751229	0.01203019049117648	0.09984712496734308
0.006047866880364884	-0.06513035400393244	0.009784048303887068	-0.0374357713175584
-0.05817064750577196	-0.0538714766573169	0.1031846801012575	-0.1530426814469305
-0.02915418430694169	-0.0431177673909996	-0.01648260681183885	-0.2351775885646983
0.08832494375808921	0.007016560838972596	0.03473665884652783	-0.1638275929388739
0.1092067932382539	-0.02787764933628932	-0.05935311541885369	-0.08457657661652905
0.02483892232316544	-0.02604646916222726	-0.1260708155373295	-0.06026291694814621
-0.007326134093392923	-0.07325502239444075	-0.1940853936326083	-0.05313307912433642
0.007517691871869198	-0.1023576181595151	-0.2133194389197428	-0.02864849931315309
0.002084524902102564	-0.152044348194494	-0.1556838448028601	0.0439786204472667
-0.03677504771785632	-0.1185162172836825	-0.03331677671539707	0.1004697890824465
-0.04029081025915972	-0.06693272854748149	0.1495218423256002	0.1463677913847602
0.07233814902105502	0.01082634438672648	0.1786538962409498	0.2052373439253759
0.07319009281169828	0.03554509508493235	0.1292970128009835	0.2012097290095963
0.03386622103672775	0.1046898472523152	0.04949933313108913	0.1562298011853202
0.01615465671570562	0.1327826641783666	-0.07445232919886094	0.01195485536828366
0.006248042126123656	0.1509062293240228	-0.01463903028920482	-0.1368199143724214
0.005546852984723265	0.1775291130060757	0.02934295794113021	0.03435953026392066
-0.003964478864536209	0.1147418744522208	0.1485793011621758	0.1415334378320558
-0.03349913341602737	0.02453308710331868	-0.03035044774199798	0.003004868227121458
-0.01257679454854131	0.01844016291390497	-0.1206975227951102	-0.09354879235129496
0.01044741252187439	0.05250553242784144	-0.05269489961582227	-0.2193683189462245
-0.003031501738314481	0.04143837702817448	0.1438514527997611	-0.03996772238828122
-0.02279314757667325	-0.01192316506177634	0.2668156015640505	0.02212176396774676
-0.06464694387350677	-0.03556592976406087	0.1455508987446651	-0.02791024221738541
-0.03332908551303075	0.006659209828504347	-0.002145210518017698	-0.03886209598753077
0.00142034164565799	-0.01309295342429813	-0.0193769711729237	-0.08204582256391911
0.04758581910388735	-0.06053258250395923	-0.1090351643800555	-0.1413683622522147
0.05888047126201965	-0.1173869003397957	-0.1761184382640662	-0.1718850908361244
0.03673130461565375	-0.1543109932259828	-0.0901400674412223	-0.09288675732112199
0.0007974314114472673	-0.1017389147224026	-0.05035740191636884	-0.02174681612337643
0.004106238533899599	-0.05183297205411523	-0.04742647948100165	-0.06044503987007262
-0.005851778177333688	-0.03606066926435541	0.007651176550254214	0.02299519894242237
-0.02279610143854784	0.01159231660581111	0.002954099498303433	0.07876445321160816
-0.07635125746897146	0.05037857444485828	0.04781346459815922	0.1133998154075652
-0.1195620178881062	0.07231020417391482	0.1853274361849417	0.1313168481323195
-0.03152306570059856	0.05852069028590252	0.01465777741748617	0.0940967029472637
-0.003831092319414272	0.0302399364407346	-0.04478590317340969	0.0414245244283129
0.07403442497462721	0.03336741451307308	0.0997948410067077	0.0900965862253677
0.07422330421988706	0.02281412566405554	0.1562599653467933	0.08755374483852203
0.039915978811803	0.01812065424320318	0.03833375401633641	0.1483284658143931
0.08452405784865027	-0.01524162938582004	0.04118255307483756	0.1918290030775546
0.06232662621474126	-0.015850571656255	0.08769721454565961	0.2033965300852718
-0.03137265102663193	-0.01409386374544792	-0.04869309992608192	-0.04687625919478875
-0.06886990845140946	-0.02936951041508258	-0.1287699672409729	-0.1975352111640198
-0.03563363073639997	-0.03854254831596558	-0.1427966281870385	-0.1246870742383148
-0.04520980449653468	-0.03486237855718657	-0.006970665666534046	-0.04160527889776107
-0.05413817960895097	-0.009603918499932827	-0.06139275604943256	-0.07996930319221186
-0.0007951458869615487	0.0227544181739214	-0.2516637322985311	0.01284516175371019
-0.001214839066580697	0.04655863914332916	-0.3490186403018657	-0.01782970234918623
-0.03673100907582064	0.06686607072554532	-0.418547290330115	-0.1288366783995245
-0.09467872302953347	0.03355709175535004	-0.1798507313519869	-0.07458332160204159
-0.0903216522211939	0.03766470288816393	-0.08020272253857856	-0.0177094138215073
-0.02772870135073852	0.02230117482313285	0.3476441219325425	0.05222039484051835
0.09074753248635277	0.01356871545924944	0.5565315632988963	0.09766460781758848
0.07607167061155977	0.002950995970148198	0.3502881768881298	0.07292458685551569
0.02948648876455937	-0.02950535671076908	0.174238627706523	0.07324007473665602
0.02256520674836977	-0.04273602398639004	0.05144978462924216	0.01847878227491426
0.004806581772133695	-0.04805122987199013	-0.04433434957306508	-0.02663115997628256
-0.001390628199092239	-0.02964969830740599	-0.08241464510811333	-0.04612563301512703
0.01621545321693766	-0.01732916989961493	-0.1007492991476484	-0.04030993139355087
0.01682533290868541	-0.003754507994360088	0.0217848777037773	-0.02323294333500604
-0.01761228460791882	-0.07154847597129087	-0.0149286552020217	0.0516688833526697
-0.02830452894662866	-0.1374917838361311	0.004363814716468611	0.09166858945569734
-0.03933976165816779	-0.1548116698230747	0.08366918278156693	0.09586345241027318
-0.01135935131354571	-0.1130980637067568	0.0381635570723062	0.1774637694618376
-0.02272245377976165	-0.05147981047752158	0.1136751276066434	0.09368290830686825
0.003305030143390594	0.02711384621684047	0.05642903073306184	-0.07364583390880906
0.02423442832364315	0.09946648621791104	-0.01955846928816478	-0.1704610575171422
0.01449424323322647	0.1516210448334204	0.02698847328993851	-0.1685104598551458
-0.01016710230084034	0.2022212970959976	-0.04816864081598611	-0.05351394904515706
-0.008076572640110616	0.1883300109507845	-0.1515205634790382	-0.03741844917004389
-0.001778861026812547	0.09082537967220083	-0.01866496212414431	0.009641635508996377
-0.005816785566058022	0.06503008208710537	-0.01630127840356916	-0.005324652833658751
0.01990986724378425	0.0224200377972832	0.08296163266690726	-0.04660909906688977
0.03281270511050299	-0.05192781136078113	-0.08987598090568412	-0.1006471139104877
0.0743438135659755	-0.08360232216265095	-0.08355268128998949	-0.0693699475480848
0.0334440649538244	-0.02386555736216491	-1.863457452041997e-05	0.002269851034431642
0.008053509745080248	0.01220706978445002	-0.01892992486639456	-0.01863090587342561
0.006611560155962347	0.01559402660702043	-0.04077933423365351	-0.08600110019818616
-0.01208314693427823	0.03098370839286694	0.0351567842506515	0.01231979070587764
0.01539974236810873	0.02168986721533889	0.03287236042120645	0.07792235114766827
0.04006038261002926	0.03020376625664912	0.002285003850982598	0.1058415839907784
0.008300904575759277	0.02287645280479523	-0.02236869527963103	0.1260089265160051
0.01070117451851661	0.01379751812926848	-0.0417662015921926	0.05412681527299113
0.008211779478694295	-0.003692641634322395	-0.08077601805374607	0.01834085495836435
-0.02779620452557345	-0.04759647114837874	-0.09388894866457929	-0.05129229426451823
-0.01194982937737238	-0.03132101826653774	-0.07590653013564046	-0.2101029173207477
-0.0004703308340138707	-0.04432047381611349	-0.05889755722657734	-0.2332047247038504
-0.01058943614144765	-0.03359929222824638	-0.04014876734048507	-0.1399775366014258
-0.02120526977955381	-0.01890625778941725	0.006094348660393817	-0.06325361294260251
-0.04865831738248323	-0.06290723975031484	-0.0299167758518655	-0.03920902614341803
-0.05989890836089744	-0.1029186056441088	-0.06245782119497915	0.04664401074875842
-0.002000735239287196	-0.08026579462877213	0.07917853504556675	0.1027246443665187
0.04389332448073469	-0.06178671558560462	0.08026161479893765	0.07185654165423412
0.02843777576595891	0.01628535229671916	0.02324685663043682	-0.0130669467108363
0.02298522780770183	0.0323080865616538	-0.003693134116554829	-0.01716836214994735
0.03323235917408295	-0.009468690591649129	-0.01198329646122005	0.004401899126319102
0.002699718479241251	0.01278573510865917	0.008497108877893914	0.04187653119938187
-0.01636692841323103	0.0612155276926769	-0.02353099732239537	0.04490686614432551
-0.01699663668806562	0.08568189691253369	0.0007213772426190911	0.07741198985334419
-0.02110343258447182	0.07021735714383633	-0.02387626928236709	0.07865899330986259
-0.05222571774059515	0.03887639600453978	0.03021443712227941	0.09753561731789817
-0.06766891075446262	0.007582156844062252	0.1212157228843547	0.02653395860651704
-0.05699766030243544	-0.009039234330672868	0.02895000349875732	-0.009406843367926857
-0.01276256881548754	-0.06011543887846801	0.0257325523539181	-0.0340496502667782
0.0165869105378354	-0.03508495979859243	-0.1116716471465194	0.006577261452180514
-0.005058010327669754	0.01333911018565964	-0.2018774820819842	-0.03635070187489145
0.01040604135416219	0.05334177822506688	-0.2138802749757972	-0.07671759487965625
0.08186806754573664	0.05709732336668692	-0.0005465271345010091	-0.002923472024347383
0.0641896032310449	0.04121855465151779	0.3038929147462143	0.1168694870973191
0.0315230316890216	-0.009188555395189439	0.06012925009350374	0.08097317917063065
-0.01248728352231795	-0.06970942602072472	0.03892236526084639	0.03352933047979612
-0.01088300673352592	-0.09149818825593742	0.04396393412925576	0.0264914331360016
-0.01933988480749077	-0.0593903815139171	0.06291860666949506	0.04980560189741575
-0.0285768970973037	-0.04535262036125156	-0.05526254977774991	0.06198362013103488
-0.04068532645754232	-0.04425500976898854	-0.1291094483034665	0.04850327759955972
-0.0221224466583594	-0.02607647185267351	-0.1591122028578704	0.06438474905176865
-0.003947070145364931	-0.01274824681301005	-0.02320474892520133	0.04946236351032971
0.008810684977527402	0.02817247532881529	0.006918049946962454	0.04350248386868133
0.008063402569286723	0.01116843383024786	0.2540452129342224	0.09277148673177252
-0.01622075912457289	-0.0426073318490119	0.5550202252712817	0.0802780994379871
-0.01490552855056597	-0.0191890005788871	0.1627491721016564	-0.02659985730721611
0.009910671187087331	0.01604147940086888	0.040091774317457	-0.07505802147122874
0.01388455490735178	0.03300902850740517	-0.07070913935038575	-0.1123323471754559
0.06038476536818943	0.02866791533854757	-0.1048068767843552	-0.1593654603224763
0.04058461089587605	0.03390639500108251	0.0260177289087724	-0.1173110189711565
0.01692719887704966	0.03838301104098924	0.3171468333138813	0.003437432909938038
0.02559305814526142	0.0813504271170033	0.2519442456632193	0.01691932994325821
0.02872436652223579	0.07099755945075059	0.0120397224075473	0.08557297330794569
0.02020699834990163	0.06263021218801237	-0.02399505947156935	0.148692271824937
0.01663189104697524	0.04578985228219637	-0.08254963090064507	0.1271837636867993
0.01858530315811574	0.02956050793157529	-0.1029781238768621	0.0629137683450358
0.009628944311120251	0.02220212531375105	-0.05636794331739368	-0.02851108309402823
-0.01273177782388578	-0.01204969178403404	-0.04000273646377751	-0.09396433385691261
-0.02844213952835245	-0.0257473928102889	0.01348640882763117	-0.06268914533340986
-0.04031494731388209	-0.0391203671086982	-0.07703675340522277	-0.03249601900652785
-0.01328701722184292	-0.06504951228515506	0.1022193626734925	-0.03869520372984354
-0.005661936049056216	-0.05427251733229134	0.007903518374252027	-0.02453768773058235
-0.03552017100664698	-0.05819082396614248	-0.1548469048417403	0.004813386746206192
-0.05009000672805732	-0.03368866826731715	-0.1652521500704924	-0.007965988726917677
0.006399515411805824	-0.06622071749862288	-0.153813226680783	-0.04570131897540912
0.05889287050592547	-0.09436878675582422	0.04946634951936014	-0.04455103338290402
0.02904732593439628	-0.08079671292278134	-0.1479131618147804	-0.11712639533833
-0.03565412578519052	-0.1181209281414735	-0.1101050449270404	-0.1541072098690177
-0.007789094279243684	-0.05033512496494871	0.1903145513790659	-0.1771246535418764
0.01234269663265747	-0.003902291329358281	0.04853668668250598	-0.1378854978776407
0.03623911768429375	0.06686486845926751	-0.09489671131317129	-0.06509871154697225
0.02926747584794944	0.1388611786827484	-0.1070474671154256	-0.0443280875502463
0.004534696994210823	0.1775696277876989	-0.1185563555711656	0.01135740656943304
0.01186412641446446	0.1924327730381324	-0.1399002606815489	0.1147327734713093
0.02681269018605983	0.1918770680551234	0.001254431774126877	0.2036476368145498
0.009556728712322396	0.135593714033661	0.02137235580656204	0.05525000287589887
0.0112021135078603	0.07962838257321207	-0.09656053880261745	-0.07730031680208334
0.001730558293222104	0.03868233575821203	0.0538182088153412	-0.09451760729246089
-0.01579475168078249	-0.00519688327944801	0.1486625497084863	-0.03599411209197642
-0.05510377228483223	-0.01900711928192844	-0.05400619571738446	-0.0468029623366854
-0.07705831141272985	-0.055351414551426	-0.1787800845574096	-0.01860593393261751
-0.08780636479868204	-0.03148260008789558	-0.05386961015271843	-0.02702541607381905
-0.07906681556570262	-0.03654547992837667	0.01610541577864689	-0.02156162465498194
-0.05419829789999599	-0.0564997338987686	0.01840893002668598	-0.003242901455647989
0.07111268105245339	-0.114998138954066	-0.03058869939271514	-0.01326234376094923
0.1123208430566238	-0.1033875960987929	-0.01701309337841322	0.01440300994432917
0.07425193962587517	-0.08498913261830812	-0.04479133823470823	0.04804126510424152
0.04496441433242843	-0.04688031504826215	0.006149083208236145	0.09891548126078431
0.02472910698428487	0.0006569039576759561	0.02996016312273785	0.1042707918845668
-0.01143114545478133	0.001153003351603261	0.02747386368788241	0.1272601207063488
-0.02096857834039173	0.0313210973357656	-0.06343117171282786	0.1587767355201268
-0.01796669256620667	0.06242477673576875	-0.01795712617812589	0.1994044864157949
-0.02430493702822683	0.05867586904373086	0.0002364058762021528	0.09566179996878073
-0.01479936306006319	-0.05986918372306161	-0.008495957688913182	-0.09950072415992403
-0.01417455403249894	-0.2292177143207048	0.03519832636390241	-0.1528250209613758
-0.01912276918316921	-0.2168847209384054	-0.01987287791274706	-0.009519068384301292
-0.0177814481285539	-0.2062370715428927	-0.07099547985770997	-0.02757744504071214
-0.01046334578404057	-0.09528181276611405	0.07171248762976071	0.02229865064476067
-0.04237009233841367	0.02301327378996671	-0.06975432509333088	-0.1018353161429358
-0.03016407561350427	0.1022275940332144	-0.09607088921861129	-0.1385079069726051
-0.02485036489526162	0.1784893453212648	-0.1128602850919176	-0.07087438593612504
-0.0283280614809239	0.24022844273861	-0.1274784316349557	-0.06820752003436859
-0.01365115412632925	0.207771003519718	-0.2518601477576522	-0.06019130679168617
0.0254793939620631	0.1684574660450437	-0.1201314568545539	0.009025900518319927
0.001922376152600458	0.08812969113372146	0.0889853528405274	0.07975041331013893
-0.0150208532843198	-0.02450879973733859	-0.1807485677170267	-0.01306228683168666
-0.003107901384884966	-0.05971868770555573	-0.006382076610489017	0.0001496122868670643
0.03778339636872793	-0.05460152397650726	0.656136542076335	0.1134646409520769
0.01770395778562554	-0.07252991235781039	0.8056798980113625	0.1127743266556316
0.01825154788018998	-0.08422640459409628	0.3626906797172462	0.06731775610142518
0.02382039501565163	-0.04569537607366142	0.04800659216706143	-0.004678839957975136
-0.002238064829440816	-0.02541926987702071	-0.06170846884490941	-0.06022565901193212
-0.04853971948301834	-0.02093433802386629	-0.186935060025205	-0.08005409040111106
-0.02483141539610553	-0.02729551398412138	-0.2433572003045713	-0.03872951736822988
0.03960494595274376	-0.0470110295492804	0.02564413184508418	-0.01411096340429032
0.0455486411273895	-0.112571149979711	0.2024709261627535	0.05890075488441227
0.03219774120065481	-0.1106295622014141	0.08605276176465766	0.06410718593824402
0.02139738931384053	-0.06493727804009801	0.2332268940736187	0.1180772038732708
0.04109834108368449	-0.04298172346516051	0.2263710552945261	0.06185172546946037
0.0312334935067568	-0.02554624524242276	-0.07169889765685424	-0.0006276924616601832
0.01895676463451319	0.01352629368312164	-0.1853969883931683	0.03344545065210091
-0.0009428053759358468	0.0333669758035303	-0.09642627532424783	0.1002048649348087
-0.01962527390479954	0.05375687625923407	-0.1546281356733982	0.06106691533260325
-0.03076605021564595	0.05763803129888726	-0.133279403999586	0.08982548125999752
-0.04089286097603177	0.04251953167803031	-0.07759575313113701	0.0876727641675049
-0.03513391323856141	0.03339308690584003	0.1438762791563835	0.03973840854345248
0.04134265740108112	0.02782336148907063	0.1738168164832663	-0.03640650896806486
0.04644650328522284	0.02497119257079356	0.09241186698292612	-0.06295486586296235
0.01923833349621381	0.03247878679419093	0.0376403235659276	-0.02963599509784614
0.001201176065565018	0.06356386893719924	-0.03235731088867342	-0.008298199054876091
-0.01109524920644839	0.06510561774297646	-0.06529101850060309	-0.02192491829818718
-0.05161981171137846	0.05630549664598113	0.006758759458480763	-0.02086589725425399
-0.04461154661412407	0.0530117623684767	-0.03164954301167712	-0.07226030907339406
-0.01279371752321951	-0.02245692797761086	-0.008691280934000241	-0.0721958951258025
0.02400458072956997	-0.06219729507936575	-0.1170686297171656	-0.1071714936417556
0.06988960906025735	-0.07047786329056178	-0.1097902134630445	-0.1097317338265269
0.0503431010109163	-0.06238023116309439	-0.08519096249988266	-0.003162906360081765
0.0157039515394997	-0.05241982175578636	-0.06803565933696121	0.04264728713605419
-0.01102888823244005	-0.01039961709650289	-0.07017317654004572	-0.00021886541887539
-0.03035751993440663	-0.0008889622010311343	-0.05076680844046678	-0.05523230621207562
0.002460854412055874	0.01477970613921036	-0.06947184977527911	-0.03482575295683636
0.02463902893260479	0.0360460055229244	-0.01810957765162225	-0.02398380449687268
0.006245787414320667	0.02480425935294784	0.03018959945335858	0.01208518514451403
-0.0327379118154587	0.004886938678505637	0.05231011319577891	-0.004789335613821338
-0.0726582240345478	-0.05319198378760458	0.05955347575086844	0.008135086420019973
-0.04814485869097631	-0.1147718540179897	-0.03418861950190551	0.06163603149822092
0.009467926304521267	-0.1227280181803149	-0.2338561515677263	0.02457480410559019
0.01585937271065577	-0.06570757241338647	-0.2716523925079702	-0.0121581449736964
0.0365583083887354	0.06609885059623126	-0.2494641998685711	-0.05229953132343206
0.03678151449516676	0.1459675467890761	-0.1690181262987849	-0.04639809099846326
0.04567883717482469	0.2063110673684035	0.1158355883197113	0.05455233905927267
0.001607144492955152	0.2126111748355197	0.3953935562344931	0.09264171235043013
-0.02106874137318463	0.239531591227348	0.390525846387288	-0.0482717075521496
-0.01536465065579406	0.2441796285345611	0.0989128179268047	-0.1484119716887924
-0.005850494971589224	0.1787112876609056	-0.04452636984170465	-0.09796377820584373
-0.006409920479934969	0.04786767954473137	-0.04529967445407646	0.02349590908568737
-0.0159520742487525	-0.004522784756445271	-0.04300638678289581	0.04545514997234613
-0.04354426395642684	-0.06159150870350547	-0.05665012341445019	0.08693024064654298
-0.01675844642427687	-0.1092047407266407	-0.02858649555696776	0.1730251279804159
-0.0119676810787613	-0.09294358371486003	0.04917488344943367	0.1377697803569433
-0.004924886098058216	-0.1071733447703357	0.2696339251897479	0.09879355821093663
0.007841870599370063	-0.1007307113871107	0.1756295250311218	0.09534959250837025
0.007949767777202899	-0.07630212445584059	-0.07268664094255618	0.02008376113747272
-0.02883830842251666	-0.06408191033377605	-0.0697750320170019	0.07078960326065366
-0.04347132790952288	-0.04647446768742607	0.009175070116440991	0.05605555278869275
-0.03006857157936459	-0.02900133962029714	-0.08316969712877119	-0.1910849614794918
-0.006309129041392812	-0.03275982668302365	-0.1545494581854854	-0.2306749959567048
-0.009049293415104496	-0.02057042628246777	-0.07404407398587284	-0.1543976442170607
-0.00164892847735355	-0.06280097882801026	0.09822038533549435	-0.1321989587487887
0.01992156051185399	-0.05970140596163771	0.1072269944764661	-0.1268955002155328
0.008106061843128839	-0.01960681940804569	-0.03167282389628651	-0.04466182761575966
0.01091051629090744	-0.01765012697679643	-0.03848900310276836	0.00638049430471814
0.03581107428043506	0.01029196771820273	-0.03246353333536427	-0.01658897444006353
0.01098602968509089	0.0447497532079667	-0.03914673259827268	-0.04349419941334287
-0.001185064687408602	0.05264159514875587	-0.001263646102124902	-0.02817383659404166
0.02771234565836612	0.03305912315609458	0.03331583862916848	0.02283378123748564
0.03392644517314685	0.02516887548839638	0.04732037034319787	0.03340566985165808
0.02445270339430677	0.007659171556772967	0.02963996606153003	0.05941777388514664
0.01739585182011244	-0.02990112681263862	-0.01776320662538693	0.007483333640540683
0.008092197471702912	-0.1085985017127727	-0.03335122813099811	-0.02375461966767319
-0.004339195061428777	-0.1452152608227287	-0.09253984095286749	0.06899082357928617
-0.005976588355878215	-0.08926850057656904	-0.01978028378502941	0.1276914416244664
-0.03735538498543406	-0.02804625452405049	0.03836684121019138	0.1002566872034224
-0.04651670392250892	0.03939726892654301	0.06868354308244198	-0.1079296105520124
0.04343323182260292	0.03462800799442465	0.07993080243026286	-0.1232826312674564
0.03311360118656433	0.02238063443170078	-0.001935247934492433	0.002283613847133391
-0.01209367530859273	-0.05677375214672261	-0.0337547170260734	0.04779185530585141
-0.01726624481147899	-0.07252574971584053	-0.06075458534769604	-0.03346529181976753
-0.01667720751684121	-0.0523049486757748	-0.1274759345176572	-0.05443346088381403
0.03706309708477282	0.0119891513457547	-0.0763934100511197	0.0426611274030178
0.03291127719142212	0.03809022814177176	-0.07847405886068955	0.03546039792617627
0.03827196675824324	0.03978300164864473	-0.06619952993032203	0.03195085563775476
0.03592577525974015	0.03986649378059447	0.02842400996375162	0.03355258126739015
-0.01968010463345476	0.02068014018062502	-0.003161119570455184	0.006264861275223001
-0.02102112635802444	0.03693699641142362	-0.03700386087006616	-0.02617193555575253
0.002945926924595855	0.02224209917160483	0.2910110783129499	-0.03537755396157337
0.01134199311235121	0.02884399720672898	0.1977373294252014	0.006178085850800975
0.01737010512811974	0.01580047767586442	-0.1475018241328325	0.03398204591553287
0.0372945704192996	-0.02297176703538613	-0.3288051190822641	0.07938751747619756
0.02569622746865638	-0.03774091551447401	-0.3755209580273774	0.01438213450481191
-0.03376901022536017	-0.02564828347385533	-0.3232620144778269	0.003067003613304929
-0.03798424215920411	-0.03920691364503028	0.005898571996132471	-0.00160349288950476
-0.05647816182474454	-0.07270154332683389	0.6474449324857126	0.03624836283228216
-0.03378362428459048	-0.07913574939812786	0.5251689005424823	0.07766727272657797
-0.008450391560954519	-0.06127167791823814	0.3770637839910345	0.02648741380651527
0.008440803597006354	-0.01109844161459988	0.1146549028026236	-0.006669552028977377
-0.005938240744362534	0.04457965543980912	0.01271289216174153	-0.003508557873364846
-0.01326726788356374	0.09857932543810959	-0.03317558135393714	0.02223976056629387
-0.0003189251397450349	0.1110341945409277	-0.05909141854811101	0.06867667046344046
0.02698750347395577	0.1517593474246329	-0.03030568466736535	0.09446440792238976
-0.04618782501101451	0.1477631997908301	-0.03240723047234921	0.05734978512674924
-0.07349252198099902	0.08427263695466833	-0.03821517934912295	0.0497053312848524
-0.005742987985479578	0.07260445490424074	-0.01222167042408555	-0.02578089302501808
0.03275960532872151	0.02360920654407135	0.006707987945686658	-0.0764004156911863
-0.008997330010427648	-0.000821514419485656	0.01120784320626715	-0.06988462337602287
0.01722577338822597	0.004136932689924029	0.003419714453314237	-0.004629772890568679
0.06624244414957174	-0.000559870075785192	-0.0947186364754834	0.03171065303753437
0.03753918155993516	-0.01668928373802672	-0.1491887082695723	-0.05897077171459925
-0.01973560785987431	-0.0325280754948435	-0.249729621676914	-0.08384129201785798
-0.04016754781145681	-0.07792157525112467	-0.1210520451632987	-0.01129634845618704
-0.05051260261798238	-0.07832785354924687	-0.1455554838953706	-0.05678891995955225
-0.0165124286684071	-0.08530627069464541	0.01292238408429255	-0.0578631202508427
0.03583868462165804	-0.05981179654239524	0.02300343553593513	-0.01071958530246534
0.04550711765978033	-0.0473623190586713	0.1740672812183726	0.05917629176331202
0.06711613692782602	-0.009427431027316593	0.1412834233985445	0.04175044224426598
0.06928200244138213	0.03777124303836405	-0.08169089365513779	0.077004064036238
0.00421817632544693	0.03226193118518089	0.03558991199077204	0.02374802139879093
-0.02958785284215231	0.03716896243713691	0.04201912662564089	-0.02809433103217212
0.00340415906219543	0.09765367804365807	0.02420370949207397	-0.03169872420385689
0.01300413704166131	0.08571280997916811	0.04829440589443548	0.08966995151560207
0.008757045773193684	0.08405824694428948	0.1106857215029651	0.1341876285958742
-0.1319792644503879	-0.0525332852208179	0.01183132320529424	0.07646690828042831
-0.08169679720529285	-0.03427671235844185	-0.09163893229302289	-0.04804500975664232
0.1061941911620261	-0.03697027485936896	-0.1089155420496306	-0.1439273400504326
0.08006728768561611	-0.04491025481403761	-0.06741587566826493	-0.09363864498503317
0.009485772162368632	-0.1329880058774007	0.005853725432590513	-0.0216195962418335
-0.02576855727217209	-0.1471007681895701	-0.0614368560750737	-0.03909771022024466
-0.0458826179734054	-0.08711166713515651	-0.1097717845246865	-0.09034182720725706
-0.0523351104396028	-0.04029166904174631	-0.0717471447044979	-0.1678023349047764
-0.06429609787245119	0.002965771955319242	-0.07780688134173787	-0.113663182444343
-0.05869538038981414	0.05717124917779835	0.04162651738741711	-0.08281069463055092
-0.03228738460724316	0.07808710816103551	0.08527546410220119	0.03447171781944039
0.009838488247525312	0.07592032196973909	0.1390490514083392	0.2116276953349574
0.03172926011916603	0.1266720434359273	0.04765655110353451	0.2173485864873008
0.001716988622410339	0.1345832944004544	-0.01882769966893033	0.08403524987268966
-0.04891417512897542	0.08455673943151841	-0.1218892578163859	-0.1324888510966944
-0.05355818078687295	0.06489926388808014	-0.04256520989907717	-0.1617036828074754
-0.01219893921310424	0.04729257997136414	0.001545128434379225	-0.1267424798934205
0.07761334932934967	0.01759096941068658	-0.1395283599855877	-0.0830226085893188
0.08162688547229875	-0.02150272963740393	0.05059005740192298	-0.04021588649536235
0.04016013926682922	-0.0551252671119384	0.1348356788081482	-0.006983013448274549
0.04740812073239509	-0.08033127333307065	0.04454936118594553	0.01153060721847927
0.03886440928558624	-0.1019101659749646	-0.01686947823741634	0.03279940541458044
0.01361458596984736	-0.09263381543138083	0.008741727477161051	0.05247956588710012
-0.003134586637503265	-0.07295763083772497	-0.02923579265534524	0.03060839181815682
-0.01152867448771829	-0.06154565661429003	-0.07573497783482726	0.07519605057130396
0.008690233883384467	-0.06614051449350937	0.12542022178191	0.05916661804791113
0.01687313386325037	-0.03964161624934775	0.2502348440984216	0.06023700818767339
0.01299352703239649	-0.01693693984135525	0.2443017254869005	0.05774223618523873
0.01491830575578706	0.002125310349070626	0.04590885407439172	0.007883974271190027
-0.03818811170616017	-0.01118528020855636	0.1473824336957355	0.04214559566578618
-0.03713570483969537	-0.1225473120171827	0.0756730284468856	0.1229810336347821
-0.02330005628841566	-0.2208967018359556	-0.1330829142621608	0.09008622996284035
-0.03518440190864842	-0.1764257543840003	-0.1683694981262295	-0.01652618501156094
-0.00996081307505868	-0.1104917762738492	-0.1912172889987479	0.007871156470426431
-0.008350998175993399	-0.01968615966410266	-0.1750915560179234	0.0146440847460442
-0.01245559371771437	0.08751731350501853	-0.2213582708754166	0.00884536740575899
0.02272338931568563	0.1742230435198093	0.2020732369116008	-0.03082532887243763
0.03245771861667948	0.2397599919599021	0.2757588688207522	-0.005310974084171247
0.03167021365600648	0.2930934797274658	-0.0633990961413077	-0.01176277811725469
0.0139269492243249	0.2461570277539766	-0.1425976773663097	0.0169890422111552
-0.006100576755198327	0.1904263213341463	-0.09904493412325747	-0.05290282577186581
-0.01296129283492297	0.1363065160442582	-0.09629810342490149	-0.07641102414423649
-0.005537619598430039	0.0603710082949076	-0.08395717850842785	-0.1229664070149284
-0.01415235784088472	0.01008482583917117	-0.0152908245467653	-0.1291921590233676
-0.02572055393640458	0.005770838971113446	0.1063090939724099	-0.01267876424208944
-0.06889622767511816	-0.002291441212657264	0.1442389449661596	0.06223944137251629
-0.05668918574154452	-0.00547698255570222	0.06650697351739693	0.06703661276201889
-0.0003600532668644732	-0.02525338340615538	0.02659110170297262	0.05803593088611467
-0.0156292232599372	-0.02108594080291488	0.07608178176814573	0.07109658405032891
-0.02530646176467904	-0.006340156072901166	0.106422364837674	0.05932306282179601
0.01759481568996197	-0.02662227266894447	0.0117611107867563	-0.04769343374324823
0.05992824373453168	-0.07077215969949788	0.005080797527002809	-0.05246814553438554
0.04350576822919261	-0.07975669442498105	-0.005571602311403715	-0.04360086679488624
0.0001090904356492997	-0.07762763766044517	-0.04989607837124083	0.005914784033029061
-0.007624936911938132	-0.07390210277953936	-0.006667042906894686	0.06281972229840752
0.01441091505196253	-0.05687904935875524	-0.06689654377267708	-0.01015481952231559
0.07522958656845394	-0.05196006037488338	-0.1056195883557243	-0.04573933737922515
0.06344035317068573	-0.02040847191801138	-0.1032680027424062	-0.08779011670006102
0.0873244491022426	-0.02552987215211567	-0.1005241162036743	-0.1268151740703432
0.03737037277804814	-0.029126360049497	-0.06941734519270699	-0.1165267316215374
0.00349164419849443	-0.003654940167886306	-0.009343741617280859	-0.02227743102815389
-0.007740233014627252	0.01112308646779391	-0.07747129115408405	0.004570490830296011
-0.02078263685896119	-0.007109328256288	-0.1117374337588606	0.005742469186329611
-0.00824968169382519	-0.02421048511063014	-0.0584280896567759	0.07772483450963588
-0.04332373431104086	-0.04877292661784927	0.06581949176682597	0.1471506288796933
-0.04329296143858729	-0.007690450639943789	0.1398589947897623	0.2615602233084089
-0.03508972161644473	0.00841527421617754	0.09883288501280507	0.1521167513830952
-0.02164844926949323	-0.05849276411032207	0.02309936542186148	0.03401899692695552
0.0001749019376795498	-0.04702864054103706	0.02570131555017618	-0.02999622538197501
-0.01408446023491781	0.01302331927713788	0.06179610885861959	-0.1825488912765472
0.05046475572029299	0.05096433029842427	0.0465628552082809	-0.1519924502219688
0.07147609226355535	0.01208855428000515	0.03590320160314416	-0.009799738384028336
0.01286430144189991	0.02256757192671791	0.0001870556218601938	0.02411909468467272
-0.004722614919838564	0.01513111413645902	-0.02387257872260847	0.01824292144930589
-0.02128544454628108	0.01892174033300825	-0.02530153302264291	-0.02235060315965429
-0.01695906804523806	0.0150485192076645	0.05048443444681177	-0.008494959125716009
-0.03057000292359703	0.004991876615244889	0.0132097519611879	0.1286274617811077
-0.03968566420909134	0.003737919624225201	-0.02067881425845779	0.2636251621083625
-0.04715345851644309	-0.02261741039756523	0.09553644058990636	0.1611688512207915
-0.02700386091892665	-0.06492967551049338	0.1046497866670346	-0.01536299995587996
-0.0010813342285602	-0.08800439943252343	0.04531758733165306	-0.2058208439045803
-0.0169217256312612	-0.0588870802247693	-0.1077531775983364	-0.2067134385884587
-0.04186780520819864	-0.07968291760356148	-0.1524669540704032	-0.05994044594183116
-0.04214745907529015	-0.1351153934043822	-0.1133070032102197	-0.1023226946324544
0.01660555308164434	-0.145469416842125	-0.02750168258704125	-0.1215223136775189
0.038560337623107	-0.08833611135220543	0.008760887717541051	-0.06755552318644854
-0.008848157201192659	-0.003399135925045597	0.05173821224687687	-0.06532503073791597
-0.04716981114810113	0.07539535455425049	0.02784579009461389	-0.09569127850231168
-0.08236912303989338	0.06928172061636689	0.01308938838150168	-0.08490110388136334
0.0009528425786377777	0.07533701193984745	-0.03093271065266294	-0.05885737022164727
0.1118571198079195	0.05010128246195612	-0.1273873804221134	-0.01093233123104543
0.164660573145077	0.1109935508931539	-0.1330475543004938	0.04390913576419608
0.05533259872786746	0.1295896212885681	-0.01830144598827759	0.0146478806078398
0.01809960277205811	0.1452184112029075	0.03041523624962594	0.1051513108273705
0.02511610601312766	0.1367818297432421	0.3345858754069134	0.06456268164339102
-0.007376869966766142	0.1236359074016607	0.2471484573154402	0.07243630605763594
-0.004329419036451053	0.09462619630551722	-0.006446813783156211	0.1419385906482262
-0.04494810762495978	-0.006965921841653832	-0.1658507829665772	0.05733488046182555
-0.05407500263715305	-0.03579212802331483	-0.05027447955287964	-0.005475941422863416
0.03815364271485348	-0.03690345695768772	0.1387018447767599	0.04727648672007317
0.01855312428277335	-0.03096353941542327	0.1527690614621084	0.1273898659858811
0.006892487244367748	-0.01510527735729536	0.01151106423914836	0.1150313221676003
-0.01556704598821472	-0.003473199769065451	-0.02338538395181429	0.07382379941411371
0.009274813709598961	0.03469623714737447	-0.0163130339408653	0.05660309217414407
-0.02541433989081589	0.07597759353277732	-0.03588930930412516	0.04605625652523208
-0.03187419203479758	0.06968147723731648	-0.04293937344393226	0.001361171093481196
-0.05204323593821884	0.006835307749803289	0.02922428058090813	-0.02881184869664487
-0.06890490551102012	-0.01867356195470075	-0.08809485466781491	-0.1011338134485967
-0.05297570353128365	-0.01113156289817955	-0.07809547320744768	-0.06708911159134733
-0.03096935143156607	-0.02317044113257299	-0.01728952184768118	-0.06293771945607446
0.03368022178458745	0.006650482124899599	-0.05997751281817078	-0.05863510840412361
0.03232467389095774	-0.02500206583042999	-0.1075568903280237	-0.02683576460077708
0.02826597453919276	-0.06738408064133342	-0.1503407309581187	-0.008492864357871046
0.08983822590343869	-0.08106561785169063	0.01066740219905895	0.009873952106068768
0.08058217825149783	-0.02690989546558874	0.08126008421425086	0.004630279075584115
0.03994495360912485	-0.02399972087866094	0.1404565143876862	-0.002968637556596464
0.02197377543545976	0.0038184531775691	0.008512819013355717	-0.009745889953541949
0.02080875684808505	0.01665975924166178	-0.05234861663989793	-0.03095739321954424
0.01969196324905916	-0.04119174338311839	0.07358366790807971	-0.03514956415860136
0.02266545918741991	-0.009557938176981723	0.01963967322789142	0.01647645287985675
-0.008422267674470369	0.02298913884149483	-0.08746818214542844	0.002282399358963511
-0.07978508889796146	0.02380585382765248	-0.2129944711512551	-0.1638922715097951
-0.05316347769219332	-0.008192184377222241	-0.2484387489349993	-0.1590571354508153
-0.01286955668302814	-0.03703057173719944	-0.09827358253659846	0.05301599704128011
-0.02577637463707115	0.004026112644048394	0.03853475000289854	0.05810837409406368
-0.03516084443921724	-0.004529697382199048	0.3424402825095227	0.07203726928253748
-0.03240035948384582	-0.0130822439411918	0.2602920293629759	0.08721020636651355
-0.02553951375495962	-0.04279569901020755	0.1376609060209652	0.07514640283271615
-0.02302584327596138	-0.05326999175919256	-0.0005198229716618153	0.02491734162551625
-0.02019225782516464	-0.05752916637775611	0.03613368795808451	0.01428830895539078
-0.02755665372482828	-0.03739003923909393	0.1149844613050285	0.02936389430689872
-0.04971253060672626	-0.02247132445890946	0.07631134813343615	0.02558446115952847
-0.06375017341448334	0.01980771569224949	-0.01138104267669236	0.01007512398731968
-0.04518268952411524	0.04899454326933065	-0.08133642183766593	0.002280930981236488
0.02245140255954355	-0.01980032620973727	-0.04187165166676126	0.01520624709769131
0.03939885499733389	-0.04821623341118585	0.01076355328450713	0.06127399820226324
0.04439089323473402	-0.0391341755919194	0.05132207983012896	0.1298980093779456
0.02409547186529515	-0.01136963491062989	0.08580017594542491	0.07062330568736321
-0.0005238443781372681	0.02638577536856154	0.0672608588153346	-0.0424315836567693
0.02804791586081998	0.05236868825284646	0.02234211186231042	-0.09720561934882757
0.02950093758992152	0.06754784431278812	-0.06256524110124656	-0.1279756444565575
0.008653025987615191	0.146739929607402	-0.1441941851518355	-0.08457455108430402
0.03875445080187388	0.1778010111085718	-0.116036417160001	-0.03258367699817726
0.05175777316338793	0.1407203838378512	-0.1725310162934218	-0.06798752783127227
0.01198877008297709	0.07959114917785329	-0.2274739416420509	-0.02599284435988688
0.0009144154595622392	0.01315724721335596	-0.1873772467397093	-0.05183255593242007
-0.009488103521050128	-0.05229910902767584	-0.07684737873401086	-0.01933892422750756
-0.007644647677344534	-0.05234753120864082	-0.01863519565572893	0.03063073870880125
-0.003210482551270849	-0.05842547656281462	0.1706204564029385	0.08913628538441114
0.01147316253375808	-0.07173659396709325	0.3010343475203373	0.1384552243723955
-0.007049878460237111	-0.07517447187000058	0.2049515565022517	0.1241558451954013
-0.0402302618491303	-0.07084536551545718	0.1413831037554573	0.08104801220389563
-0.03946427407970724	-0.06337946557951384	0.02657412390521475	-0.05564709869723792
0.03413212869266142	-0.05160009102126561	0.01074307610929804	-0.09180392959427489
0.04141282456299111	-0.05124897690117745	-0.02199438483874056	-0.1763138790443023
0.01369865480134895	-0.03391595669423625	-0.04218977634270801	-0.09832269695776538
-0.002277628967528423	-0.01023110028099965	-0.09044733675450722	-0.002390757862805054
-0.0563734722336487	-0.03247874039414576	-0.1323851078492274	-0.02320215064287779
-0.06932930046940954	-0.04570123593828295	-0.08329815827236482	-0.002463133625420139
-0.08270443915763953	-0.04193358486425887	-0.07640853294977101	-0.04169023966655819
-0.01447179793279329	-0.02835063626481803	-0.05366503211159038	-0.005174868599786883
0.0256159377381615	-0.01812420430352217	0.0515842382020121	0.1469112120039685
-0.006901373695445068	-0.01250142318981212	-0.0493846546572636	0.1043726902187988
0.04287155960486587	-0.006753422666857967	0.07817968676223622	-0.06932136502055322
0.09019037624851318	0.01215499385092968	0.0626618004785426	-0.1203820545249976
0.1126389507447367	-0.004864738632379291	-0.1101164179170558	-0.01690298248260433
0.09297448909871013	-0.02370510878544451	-0.08992207059511437	0.0358637288983821
0.02977103165781541	-0.07685656395863653	-0.08607627535746668	-0.007729262836046537
0.0008114251802372758	-0.05957254581169853	-0.08489326904402517	-0.04283851831091624
-0.01488780609876312	-0.01681638217510947	0.119540467991103	-0.07137767688017911
-0.02564876512589598	0.00699187456566779	0.09557053809720942	-0.02865706943063731
-0.02649225116753972	0.02309298921588888	-0.005560031796484455	-0.01470131464482181
0.002042286845374876	0.0777270072263819	0.06285341362750119	0.02095514782965815
0.03097143499436613	0.1126997344118609	0.003631298361021358	-0.005691608703363184
0.02961415177050325	0.1362654890125909	-0.04620626991779704	-0.02563312074613175
0.02253983722220074	0.162894091496095	-0.1084075868375995	-0.04593837509354068
0.004694619562840872	0.1356835130423711	-0.1074129353263727	-0.02863858960663412
0.002138802571764075	0.08406758807536095	-0.05609611683641125	-0.03599367849555164
0.0142757866451087	0.07215225272288055	-0.03063695938737383	-0.07525428018911881
-0.0180304909269394	0.0542874960401109	-0.08075116012452606	-0.03313888575889658
-0.04410623854555013	0.007099277124747172	0.03527563802992537	0.02038818252827607
-0.03851355564128342	-0.02438490174479077	0.001047906540787519	-0.001844549889487747
-0.01532141222042139	-0.05000187291828057	0.1033190219005178	0.0644595380615636
-0.003727585461496364	-0.0482939096776032	0.2285269184799298	0.08651711981518502
-0.05010578090693862	-0.07807834546490612	0.2923837470279575	0.06860573017353402
-0.06713248302258662	-0.101308284929375	0.1228877760601831	0.08924844502993867
-0.02840650098955978	-0.09886055477734189	-0.005692879536600855	0.08879232054297857
-0.01136302380977018	-0.1848083209162353	-0.0264302692582382	0.1017641880179198
-0.0502603326613803	-0.1950386688450258	-0.173680177559115	0.06440078154550352
0.01289568893383198	-0.1151994811095243	-0.06870191609580915	0.01572189784543487
0.06791860606813113	-0.03438158034971359	0.06390997701738239	0.004258033119952591
0.0728947966139247	0.03379347356294932	-0.04734764980925826	-0.0106259250721547
0.0492710721142641	0.1107951495088237	-0.02739881542908458	0.06831343100781759
-0.0004407641124928542	0.1108139355391055	0.03718913776549153	0.07169652213092118
-0.001979701410173887	0.1510922768931829	0.2568949200711979	0.03144249364030956
-0.03792046874645624	0.188453580480166	0.2239455427625155	0.02623291941438351
-0.04348755416482283	0.1627337753328068	0.05810444881017623	0.01971085279959466
-0.02468017098654801	0.1158510968203446	-0.03370637243804721	0.01389948956742472
-0.006094199668075692	0.03137838620056233	-0.02382191377386925	-0.02350053340635764
0.01402976152051822	-0.007435012171875753	-0.01464915792451673	-0.03312984651554948
0.005636532083263437	-0.004022317690343452	-0.07431027097324927	-0.0130644943483138
-0.01527158857491695	-0.01501495383680655	-0.03209328173032441	0.03809975668125527
-0.03214361182817679	-0.05846659102556744	-0.02668401161647703	-0.0005009795091075193
-0.03339144069975004	-0.05732977356132331	-0.05164702146058699	-0.07630625959733292
-0.02020670523200984	-0.04039820219827896	-0.08884441464027125	-0.01784748476226551
-0.005608239008474386	-0.04126121156291841	0.08048315595285886	0.1435427729331724
-0.007171899723371728	-0.05315668857053119	-0.1663413531231716	0.103318573512706
-0.0480941636636809	-0.03775967205249841	-0.3334056022351701	-0.0669198782294603
-0.05291978579877558	-0.002365508703312908	-0.3244281851338593	-0.1595339188304472
0.00482649509749331	0.01384399858957143	0.05421982636920687	-0.1164069913737687
0.008928325045878037	0.0009630533951882443	0.272558462290987	0.0291740025143039
0.07263082233409268	-0.02209639389113631	0.2912112910157348	0.03120751607401963
0.08376180491980545	-0.02133616254776429	-0.06636789211775926	-0.05414144279461096
0.06269607207845944	-0.02959953706682114	-0.01080474894256641	-0.1114695493088326
0.03269728593077931	-0.03662503813341413	-0.03853958011040615	-0.130537664230608
0.01607971644169449	-0.0554625767074876	0.008706307261435909	-0.02412270357749433
0.01179164354960323	-0.04787732783385956	0.2750341436122776	0.06601902845029547
0.02037763087693877	-0.02935119411056854	0.1475263868851482	0.2118587266438093
0.02324162637708932	-0.02304791457729299	-0.09588045466726572	0.1575996080897882
0.02448954628429212	-0.03320864962429149	-0.155613547646816	0.02133338652441424
0.01036071770971059	-0.0306039264173304	-0.04866792502224487	-0.0240674738829376
0.007904369991638403	0.02003812563989896	-0.1229939583134994	-0.08822803742048435
-0.0007399319658089538	0.008809048397715374	-0.04009285108598991	-0.1249914817709577
-0.03074237402475731	-0.00605286524187883	-0.05914318365138018	-0.0996997941301774
-0.04525680863994633	0.02781730414596432	-0.09732266786768171	-0.05632883928284447
-0.03321583153163652	0.03850134062431324	-0.1215170435876314	-0.03926529983821183
0.01940631703142032	0.07265187307389454	-0.150540778108723	-0.0495217508814644
-0.006030629786244598	0.08956358114779633	0.07270727724161348	-0.04286161147525225
0.01479006147907975	0.1151087311543698	0.1992340110199714	0.02297451888566569
-0.01466029096213803	0.1010331285537286	0.03235754388160846	0.01057398108172596
0.001822900043166703	0.08078340792433444	0.08597146589606747	-0.05500410893277044
0.01807038419788246	0.03122494149682109	0.1053327746504897	-0.07930396555903217
-0.03122421799331419	-0.05249660162708532	0.07757985253966476	-0.05433444121432343
-0.02294430162457998	-0.05944561025695175	0.006256364380599779	-0.01790458223883817
0.03289007661006723	-0.09633155299936322	0.1768290627447229	0.003939452665188824
0.02784387171384789	-0.08936397503080157	0.1731279455482426	0.003550419687314989
-0.006890640047067622	-0.05931981936311585	0.06969479342725378	0.06194808298311695
-0.01038014378162145	0.0004791631142888164	-0.01001411744596754	0.03417713719623235
-0.03710076103084219	0.02887555408891843	-0.03185823308643482	0.02914078586082303
-0.06025082942709141	-0.004360718912027159	-0.02150832952584415	0.1053228501913583
-0.04148949245263363	-0.01069114989213806	-0.05834951323128482	0.1164819542495298
-0.09313537227400191	0.01023611233517465	-0.06600902031418744	0.05404495249447674
-0.0337769946767516	0.0008345360420593017	-0.09012691082936007	-0.007751578907058197
0.02632326812555667	-0.008751688809785333	-0.09659410375475287	-0.009492385558201777
0.02029408796786317	-0.01380581282470301	-0.07868982116321317	-0.01787752539748595
0.01090241885689301	0.01939086926007227	-0.08206225525352301	-0.001119826687419345
0.01925330741811138	0.04783159857198493	-0.1783570565275788	-0.06663703198108351
0.02943340435409258	0.04899295752192804	-0.1956347940915162	-0.0436450159223392
0.0363997238700359	0.01962168508748282	-0.05863436362585343	0.003408388433690247
0.0360064278164222	0.01673717342073845	-0.05431554523892193	0.01092806035009109
0.01691267316037096	-0.008607062996178545	-0.07029538251330648	-0.00203251993973031
0.01186176849837217	-0.01576931289215905	0.2201628244939936	0.03897147508063895
0.01467444157553632	0.006075965093306951	0.3947782538425131	0.1354936067955165
-0.00926392139029361	-0.004266861132218963	0.2072503825345908	0.1026060698414377
-0.04386724446210762	-0.004052863401800173	0.02733437382601596	0.04095793052237856
-0.04428257325627211	0.016524047839023	-0.02066295412481334	-0.003335044814251048
-0.02977973555726464	0.007346367756319463	0.01372465269018786	0.00672706631393878
0.043338849793226	0.01975153862267956	0.01002981042441763	-0.004354252018569415
0.02442597617344274	-0.0140588683914868	0.007193084531937016	0.02708567277398671
-0.01249580835610409	-0.005082490090265492	-0.04633929751371347	0.04221890068980345
0.04013258936278312	-0.06674904998799419	-0.09756050966582461	0.01081415875404347
0.03527880020359792	-0.04259121020441717	-0.1303797879394364	-0.008252458386983566
0.01469998955271436	-0.02714588792737602	-0.1130779106986763	-0.073786147436427
-0.02833326974769583	-0.03505941179110161	-0.1044410357447552	-0.09574204347013492
-0.02286837647068315	-0.02930172960499831	-0.09937740684203732	-0.1267129186863292
-0.02361919265598835	-0.03552906266212746	0.004201649737781178	-0.1086871858119151
-0.054038893985043	-0.05634507091950122	0.2743324001597796	-0.03981157812617825
-0.03089079079233421	-0.02550813425354074	0.136738246478489	0.02633682911850485
-0.005793027241731497	0.001323827527117942	0.06048076178576049	0.05223013521675916
0.02408941181833729	-0.01934355910474795	0.01492997895192173	0.09667605526158192
0.004193887883509884	-0.06097156016704069	-0.07408093311949968	0.06451380375384157
-0.01577104684098051	-0.04948017648934418	-0.08791435698756221	0.08153052527677659
-0.01781352506185442	-0.06891931161058604	-0.1747780350206265	0.02100917931124734
0.000114032581687164	-0.08503349481663913	-0.2169918670183592	4.658063942205269e-05
0.01505152552440137	-0.05790654218134383	-0.1495300320331145	-0.008175804666040188
0.03138613832096759	-0.0121531988358593	-0.001265455751825576	0.06396161584898639
0.01509321817333492	0.01350458159217148	0.2101382837851458	0.07772778115264553
0.02937946980304937	0.07645817708285116	0.2736821550778337	0.09719493044430791
0.008306568177176959	0.09571717486534576	0.1969377242802645	0.04128415523443947
-0.023629291875906	0.03679466837452987	-0.0758763352886276	-0.05485379995650781
-0.08062633053188237	0.0323415581009564	-0.01455763817126269	-0.1353376953701701
-0.02763853950356791	0.07339867229962073	-0.07779620894502781	-0.2414020215865418
0.07427116932446261	0.05200263268368646	-0.129167803932054	-0.1361502670049521
0.1550948412214259	0.02646223776923851	0.1664839837471319	-0.01145928732489854
0.07418077667186257	0.01741560546245627	0.09037542589910576	-0.01506588905202024
0.03247355225603266	0.04878775419660707	0.02399426932181704	-0.04686519248885675
0.004801387325136497	0.04470526796712656	0.0808613424876909	-0.05208092273382306
-0.004643983278715244	0.07113016183019431	0.1388186591322022	-0.02545158912509289
0.01961666109030047	0.1027756113279082	0.09173082115403192	-0.0126092167457662
-0.008878728118560667	0.09824314042933559	0.0213794545250896	0.009775161584608831
-0.05995134425656167	0.06060168487886486	-0.04067517096535359	0.03485708992315757
-0.03712682863670345	0.01470203314574007	-0.0440061626742588	0.03757356011795078
-0.01080721710817709	-0.01124916950790376	-0.08123583595792121	0.005266205687063007
-0.00608744146144588	-0.0191990983044981	-0.04916420843267469	-0.007307299214635715
0.03333828621280081	0.006269364580895839	0.006089508130705164	-0.01511881414298232
0.01232116997394362	0.004866993668098822	-0.02159108471572446	-0.00581095126696677
0.02444340270907202	-0.0002802268511143033	-0.04483874522734534	0.002419799094757905
-0.007371296349053686	-0.009328367494948737	-0.04651662863783443	0.0125118626506167
-0.01921555937354067	-0.0008640094668962265	-0.06188890996621942	-0.007657529446982066
-0.02387365556025682	0.01218171810385019	-0.05612786868022928	0.1465160106256358
-0.02600152721516646	0.011470593088842	0.03058986074413491	0.1233902667490298
-0.02910028727172606	0.0168671086298253	-0.01367264783624515	0.003933131916805875
-0.01452083502673795	0.006046601895140983	-0.07696393493716383	-0.09457805162122143
0.01538648449654897	-0.003552937902999436	-0.07460264773499063	-0.08913269570083659
0.01910627017124844	-0.01459775049037899	0.003115881836880944	0.0115922901358192
-0.03521224406818891	-0.02490298476060758	0.04216520447355251	0.05381482814073222
-0.02795167363828249	-0.02527785730187242	0.03007738528643638	0.05075783414716915
-0.01071397709260768	-0.03689601290916748	0.01580515644951252	0.03736441040213887
-0.03589540419455776	-0.03076712735348629	-0.06696889532388721	0.01025130369193038
-0.05237285459617819	-0.02154410926761219	-0.1131752101500344	-0.02069748967718224
-0.01771223003950851	-0.01495172639410903	-0.1283966008744543	-0.0150041059372993
-0.02213318543221974	-0.04289611013202551	-0.1187214603208104	0.0008836167957255176
-0.0212131635201622	-0.04232785473203884	-0.1213331040216847	0.02009209709205424
0.02821274220207022	-0.05237012834194787	0.09611492088242332	0.04907247219243694
0.04899130827516077	-0.04368221356230834	-0.02178380906804207	0.01747062094116186
0.05163948339444668	-0.03120349090467438	-0.07978290104131838	-0.01357043258968139
0.05389766201222782	-0.02399493116072251	-0.1482434638839264	-0.07599177084009918
0.04817026011468747	-0.01247518619382533	-0.1538143987067525	-0.09522139430880101
0.004908663037918762	-0.01902257303990088	0.1273663317380402	-0.05111368979207833
-0.01998645492086808	0.01107580143162154	0.489352142621646	-0.01364286377212103
-0.02675162005005335	0.00713221339904013	0.3895061381768565	-0.028014635233057
0.005329089527801388	-0.0006894678288927686	0.2147329944573984	0.008246187049235182
0.009977965909389997	0.007092860259309554	0.1311736117240531	0.01853477397789228
-0.01514220361581772	0.0146210041343099	0.06384642143904519	0.034161747274769
-0.02239465242754771	0.01342607740305015	0.03441344242238178	0.04974101672620873
-0.001971091546297055	0.02319648894140316	0.02186724052069854	0.04247987817162618
0.009183190280403573	0.002828188324922529	0.02492448182096261	0.07648541701334108
0.003211484397361628	-0.02981694713898333	-0.1351910572367768	0.08224978911338229
-0.01534416728540437	-0.01978598148870353	-0.1633363729676924	0.05128487497986538
-0.02136281111213675	-0.01484332933437366	-0.1210408779412404	0.02007890115548833
0.004520350153793509	-0.01055903476418899	-0.1495723761326902	0.04630386953725323
0.04640653975218539	-0.01254835339986809	-0.01414889513700227	0.06152277577728266
-0.001050449792903595	-0.01426611187340244	-0.07820626098663327	0.03855089451439658
-0.008537677004050035	-0.01282892286190141	-0.0003740338616081938	0.05734973669768174
-0.01465869813559981	-0.01822887126901649	0.04793885380637601	-0.02276198113074739
-0.02578996246713287	-0.07201702077131249	-0.04696018603082682	-0.04162169014364903
-0.006959812372458536	-0.09015879653491819	-0.09139015264689954	0.01738628835879191
0.02076489842393995	-0.1135057432831581	-0.04908806036496832	0.03610923813685004
-0.01140714264173078	-0.05595671643627269	0.0340445836090121	0.008503461508315885
0.02139601088852057	0.04830012568078729	0.1189637780132383	-0.1599169148559339
0.03945295202135615	0.1241693218770939	0.08720594177314984	-0.1625184303330563
0.03851529661794164	0.114791976120345	-0.05400283979850346	-0.054732580509374
0.0192114143046663	0.1538785885252996	-0.09691750997597398	-0.05185753702668773
-0.0243829509066158	0.1353269541575473	0.3849384324019881	0.007226521835880327
-0.04886315949589378	0.04344660967700451	0.004432313341146367	-0.06265987894800251
-0.01725981227809708	0.01725322146564166	0.006906049763350571	-0.04230929963694269
-0.001229869344071804	-0.007097452701490802	0.2150888947968265	0.0556386197421593
-0.006489536552799227	-0.02180146263755932	0.1257930786106544	0.0540634485184208
-0.01427475382480127	-0.03006749861602651	-0.1150025223572566	0.05790968102505752
-0.005524616017218075	-0.001130492387650088	-0.1354948968455068	0.006313615933836665
-0.0009427259640455142	0.01089919288744607	-0.1156002606009525	-0.05488878453467252
-0.01100887429889989	0.02027479833817063	-0.08795683487921853	-0.03494343627275351
-0.00820867947053394	0.03802870858930282	0.01699411441316158	0.03531522086558285
-0.0361855916826626	0.0156661279937852	0.08373002640085569	0.06075987244457034
-0.01286147439645191	-0.002099848568009139	-0.06036062115668968	-0.0003291331360373318
0.01973074913274649	-0.009112912216951364	-0.1078913488134743	0.01889915199102424
0.01437794115559601	-0.01532236311936353	-0.179711201118707	-0.1186148944313542
0.008716937408795502	-0.01271521935059515	-0.133039597008247	-0.07644121199873068
0.01412503940787427	-0.008942476195133924	0.1637617426184715	-0.02095694842850741
0.01013964771441411	-0.0130977772144094	0.1793596804641878	-0.01004715701466016
0.02071037729868587	-0.03614659474327876	0.1409990144624488	0.04902433010725779
0.02372424430720012	-0.06380587106276486	0.005692799872484018	0.05539730221649423
0.003177090991316225	-0.0628014651339711	-0.03896348277376538	0.03637843274086129
0.008001028207897143	-0.08061227552342372	-0.06388828797051033	0.05347789339168041
-0.03669650152842786	-0.06242544469095689	-0.07334581343030649	0.05609434322620709
-0.05903214130945321	-0.02638451312698502	-0.1059756459778514	0.01197936466861957
-0.060623562966693	0.01200308568958803	-0.08112510929218859	-0.08177483950375437
0.001005137862495608	0.01999030757571363	-0.07367097273447457	-0.2243112018876134
0.01766139251218554	0.03189631569829351	-0.066489481314947	-0.1706323391700584
-0.03493780971632509	0.02342569947106773	0.03383951688183184	-0.03288617333259262
-0.007866764173934886	0.01744578284989168	-0.03870110361283415	-0.002630194023803554
-0.003745597219254822	0.002220926525070735	-0.05486002333286712	-0.01854699994515881
0.01111133835394689	0.004815870927618907	0.1359345003721222	-0.008272544571726121
-0.007472302611605227	0.03631608289403044	-0.01825566032201777	0.03713517617017351
-0.01434780905779945	0.02221520654093582	-0.0336510908932342	0.04224478474728518
-0.02592621002707435	0.006678724300442762	-0.002920560050219458	0.02934119676633939
0.011001307054483	-0.001914110528281494	0.008822969473939872	0.07149208442633002
0.01832587505815252	-0.002308988783294911	-0.01684126117104012	0.07404364197529167
0.04756659262514875	-0.004187155794968681	-0.07045659587293057	0.06783854068771342
0.006380316160862494	-0.02410380067242146	-0.1040465988464984	0.04265394317075519
0.0108120420715037	-0.02789845126697315	-0.171437488039808	-0.0008095407723102148
0.01459955801925756	-0.02525092829831225	0.03265118162131034	-0.005790125041505297
0.01195823951117932	-0.09674227433424792	0.1266908005710083	-0.008567575346439095
0.02870697417278717	-0.1130605082128733	-0.1485991042204459	0.01708711586730047
0.06764724070732465	-0.09830992488936756	-0.03523994576325797	0.03060592887064436
0.06909144476591553	-0.03009774142379978	-0.118300039086872	0.04943293432932943
0.05548023180721346	0.04893629769872856	-0.05776950862935342	0.07074951058680892
0.02323650465286961	0.1064711109708833	0.2772031197311415	0.0845539427535304
0.02415289010724588	0.125716963272237	0.3453253413544748	0.08773073109940632
0.005400196812325786	0.1352112138248758	0.1520012540631133	-0.001473835006399355
-0.005968665951967348	0.1769497654256569	-0.04590918442637333	-0.08302133057399716
-0.01347126179368209	0.1483250367796203	-0.04039500867600648	-0.07227264724096229
-0.03967565434800758	-0.05359339387046893	0.03488383119058969	0.005706824607796365
-0.05032354055797006	-0.01998978914322884	0.1318756949190584	0.007728972263254195
-0.05390228875779608	0.01105461583571972	0.09719393839576981	0.001937639513188888
-0.05573654199486888	-0.005688544474005273	0.02517156567872422	0.05846053168353334
-0.04746941364140142	0.01731349548098023	0.052116937904278	0.07589767827726666
0.00480256821451813	0.02706118374429781	-0.03690314763766466	0.02713380222532783
0.0184711219929218	0.008005125303469914	-0.1308695821746679	0.02193278574236815
0.02366304455111746	0.01745900228149933	-0.07761333445310079	-0.004615138721367899
0.01362206934120296	0.03240846230623093	0.006995972173215714	0.0006531116941118833
0.02050529065549736	0.03023042835707385	0.3012467999856261	-0.02380316022599641
0.07009966907183894	0.01140907399852625	0.161957856830508	-0.02796962954246148
0.07213452351531262	0.004523203498741855	0.02025115736594001	-0.02245719194241227
0.04155098996838141	-0.01600676957405807	-0.03548830420169726	-0.04027319786731404
0.01846282122275473	-0.03677636137015432	-0.1291938251959749	-0.0407205910777746
-0.04728764683309727	-0.04824995559299751	-0.1665755229270701	-0.02890634862608391
-0.08697404650723981	-0.07504439222408529	-0.1144794609019856	-0.009641878344581826
0.007728948397857103	-0.03772932863585078	-0.08481105769484922	-0.01974185544653554
0.01293901247360485	-0.05992901565951719	-0.08770464178252349	0.01563780069838576
0.01098101494724119	-0.07234652797075207	-0.004848282183677846	0.09611182302462909
0.01241356101614691	-0.07431816570056846	-0.009857716902478129	0.002203097031089129
-0.0231334476851741	-0.001318677809605974	-0.0708365218254603	-0.07445804941134877
-0.04172849701328719	0.01561574211033468	-0.1817194702794207	-0.1460016895539807
-0.03305300179126474	0.01665012092771899	0.06522817900971405	-0.1637399534236132
-0.03432963161993444	0.02232476852496296	0.2090391044784681	-0.01813308261884008
-0.004928205377969811	0.04871824362681432	0.2601234242840713	0.01156167454737615
-0.007983435180370417	0.07617728522226495	0.1195745863088729	0.02056208634805269
-0.01238549436551924	0.0771858381573008	0.07283135424175294	0.03106200432694369
-0.02624320655341879	0.03932969622872376	0.01170119727542239	-0.0150671164806199
-0.05944078710072688	-0.000545807679283976	-0.04811482292341093	-0.01281552967192155
-0.06164776703463815	-0.04757520204871451	-0.1232449771732336	0.01026917821018412
0.01535526005424791	-0.05193703926564096	-0.1847162539737091	0.2819986790044732
0.08280512766732251	-0.04902911518555851	-0.150579536800771	0.4564097550684012
0.08556483132575821	-0.03685361585022329	-0.2062705568467657	0.1770560336549849
0.05340326391253884	-0.05860310170796861	-0.1362829420999913	-0.1506831307476687
0.02193971632605012	-0.05075612113663339	0.1235909313200739	-0.2767969372560745
0.00405629042510669	-0.04532537127546647	0.2452373794753041	-0.2575307318328827
0.0003872190722044287	-0.03341421831869535	0.1243115118667583	-0.1609368148506301
-0.03900587752848852	-0.04501141230070115	0.2838827499734787	-0.1090488662539589
-0.054734757146723	-0.03447612714412568	0.05636424861151671	-0.05011815889212102
-0.02985384983626256	-0.06786273819100319	-0.01243274494114846	-0.0109813422311535
-0.01301703316095537	-0.0722943306132043	-0.06947490936424502	-0.02187413249718891
0.01597234236175899	-0.02247085596289203	-0.0002386001426059	-0.01870841462807235
0.01489983204390439	0.0093849130302462	0.2274604235242615	-0.0008372542672520141
-0.01024764867174151	0.07101563719682168	0.06414601965615691	-0.02271254751602574
-0.01127918818903834	0.1386007341252385	-0.1196789076567924	-0.02163415477871541
-0.02531183001110292	0.1265329274530169	-0.03188559508144819	0.05711881619949929
0.01311084439434295	0.07165523724099952	0.04888477064938367	0.1293699328488319
0.03816579623377593	0.05301096785320106	-0.04622752219335731	0.1427237880831451
