-0.003025753564504723	-0.04300890118253728	0.04645039187050772	0.058422511537992
0.0005269148406491539	-0.06351635974947213	0.04274805634856018	0.02377148155917056
-0.006239260215814564	-0.03722118870916215	0.03996131582249415	0.003739542179788139
-0.006076296089207585	-2.702436941787296e-05	0.01157608314369188	-0.03599712262755818
-0.007402726014828427	-0.009059251104548388	-0.0004565176163929214	-0.08773015262502297
-0.007432139182482243	-0.02626245552770456	-0.007663073390081192	-0.08121777732382846
-0.01053320096359743	0.03244110943946271	-0.04162213332054882	-0.09360367332143729
-0.01604335171268718	0.04062234111617793	-0.04997041284666248	-0.04712780732822184
-0.01655259250398475	-0.01227091054569077	-0.03400781527083015	-0.0176369775147174
-0.01351207582385007	-0.02861058612561493	-0.03821168434025296	-0.01584452811234329
0.005567996601886337	0.05377589609075083	-0.0552261937805117	0.0003957856625430801
0.005236309109516776	0.05451037531541595	-0.01749612874925812	0.00306003986741401
-0.01580131816577588	0.04570773572697201	-0.003870877178687953	0.0427465975238611
-0.01342532401904537	0.03575974296144292	0.002371741161949398	0.07577168576621829
0.001430966742382154	0.04352695357499228	0.0123011583701174	0.05877362106397039
0.01541237595467082	0.04999685672065488	0.04857553893653966	0.06136986956354043
0.008784417955032583	0.008082555206790597	0.06906227466106167	0.02878105758686143
0.007104972615948516	-0.03226103700386555	0.04273071983065325	-0.0338450631595412
-0.003993481343926729	-0.05491578749098943	0.04005824156872399	-0.04688459869846952
-0.01421124973831996	-0.07431966705426429	0.002897769962146684	-0.08928378896763901
-0.007074522748938964	-0.05978975782327404	-0.03166083425729696	-0.01745740853165079
0.01011211209105787	-0.06069055190092081	-0.03853365019666925	0.08529055243718819
0.006122994010129981	-0.01905532126639021	-0.0198693949265157	0.03050983237998578
0.002761832773135231	0.0140413671751442	-0.0241768768378659	0.005653543448412624
0.0156303384035395	0.0583569014370191	-0.01151389318989892	0.01956290488908783
0.02173420184624687	0.05789261432491781	0.01335961219636373	0.0223069216983835
0.0157681482449441	0.04717387456498048	0.01203548271160828	0.01884483907020541
-0.007691410869188554	0.05630207410420705	-0.0065035046858222	0.01361463100138737
-0.002189140618397192	0.06468247961086331	0.004288498760892816	-0.005577605737216769
0.0006029089643894426	0.06495978576021086	-0.008569187619715604	-0.004468458547392201
-0.0349078288113437	0.02372274660263998	0.01322065870838852	0.006142504934999911
-0.05220825755944963	-0.07689351970086243	0.03457793136079762	0.02833490655033523
-0.01963342554237458	-0.07645700807604397	0.03474540215309629	0.04363781595533975
0.01872603318816673	-0.04309870281894262	0.03959906790395212	0.04779469585104522
0.01778779914674211	-0.05709865339995009	0.02142634850222632	0.03998642005287949
0.00646935396304157	-0.06146844349502525	0.005293443387347751	0.02537389506973536
0.001872680076472804	-0.1001590897625158	-0.003876574864587012	-0.009296825424437246
-0.005636452639147375	-0.1238137933478373	-0.0228017588172634	-0.02657412052752932
-0.01055982713165949	-0.1348674619659766	-0.04233670904747919	0.005697324257611611
-0.003629543003188538	-0.1202958053818613	-0.03998558677084097	0.02425839748896087
-0.009780532458626836	-0.05413864382377625	-0.05193167540294436	0.0165949742074451
-0.04354693215687144	0.03540217405962549	-0.03369150659308184	0.01750486461897991
-0.05032754736389423	0.07446461341763685	-0.002233288946954322	-0.01864029596546583
-0.03704780334564894	0.1161050390597761	-0.02878266091173924	-0.05090163133431426
-0.01966587233606599	0.1527087493054845	-0.04191331317713363	-0.03965255084584758
0.01564217855724627	0.1563358936383521	-0.01707429538402379	-0.04532065774667264
0.01765798097565602	0.1606823443847726	-0.01337743891220097	-0.006452084477243812
0.02764778493074837	0.1328445647455635	0.003515734186702074	0.00433017710701652
0.0248964475747647	0.04035832369305991	0.0159702774240725	0.0114171256789925
0.01347198584160419	0.007824081187139207	0.0393600037273974	0.01540069760378539
0.002908841754098926	-0.0478967843798947	0.03070452515771884	0.0005220763705677355
-0.006812093643463827	-0.09161444601579286	0.01878357447705151	-0.01402063615851292
-0.01590708803060108	-0.07759231565855007	0.02302574480989507	-0.01227163070171376
-0.0142604957958726	-0.05551416350698796	0.004646217963674087	0.0002873843171865666
0.01146737264269605	-0.0468016854400128	-0.02363357446588972	-0.006578868094547644
0.03124659897847789	-0.05568810713077722	-0.0004973557212109447	0.002848649307890153
0.02061149420702902	-0.06136642129935874	-0.01991737565728025	0.06221766880918209
0.01171114496001152	-0.05430376436944292	-0.01622199455335584	0.03388242619994202
0.007212087122558372	-0.03422719905143844	-0.004267088201141148	-0.0360881368684504
0.01645890501515984	0.01359492105793185	0.03053884533090161	-0.06075835754941748
0.02728639697721152	0.06922225448229254	0.0528760594144987	-0.04745855456256258
0.02786101500793867	0.09875817095556991	0.02569958072416757	0.01294516742225013
-0.006042402978090334	0.05675987458279946	0.01726880633300662	0.02775889004336116
-0.05816029718089008	0.00575453066799686	0.012175973396972	0.01858581540390358
-0.05765126160230922	-0.02229641811090229	0.007598522881366722	0.001331661251082646
-0.03143504400395167	-0.007433182152661935	0.01568508119013593	-0.04193663991878396
-0.0149372145101237	-0.03208450771200399	0.009343683987889775	-0.03317650563980681
-0.0176148926290508	-0.0360159456767974	-0.0145241646958776	-0.02029298555260974
-0.009127441192460341	-0.02289292362456733	-0.03716822773834353	0.0006787912541295655
0.01039812928523481	-0.02279723992119917	-0.05061458747635458	-0.02651710195382532
-0.02483804488052636	-0.06030697942146469	-0.04689111554796745	-0.06233206263127006
-0.01982894957687607	-0.03868597742391592	-0.03425036132184316	-0.06377603535187949
0.003934182480442184	0.01223051024291204	-0.0202829208345613	-0.04477044347285676
0.03997343693817411	0.07628600361691715	0.02569377054397428	-0.003000772661071545
0.03902576825494403	0.07797924208175637	0.06821688074947467	0.03396403371502178
0.01610979353770539	0.01528786815975936	0.05334778795465234	0.03327987005127846
0.01556609641352782	-0.02961801877024779	0.01452043582955342	0.01813830960139131
0.01452905524833066	-0.02790461400599756	-0.005362596668753325	0.01045058427423786
0.0108909293971248	-0.038411595696994	0.007545004599314043	0.04370854481503103
0.01688996820744611	-0.04540228089428325	0.02929784771645084	0.0547877926874018
0.0094619782575192	-0.04439803900565201	-0.005500448005810631	0.02751775920336663
0.01945017910892184	-0.01334145128997841	-0.009384932675404073	0.01669854333798599
0.01230252023637757	-0.00359404274714906	0.002729578672950409	-0.02367478621485521
-0.01087015962319656	-0.02525678144279573	-0.01653591962489638	-0.01715267564726694
-0.01211807532283925	-0.03234074392424605	-0.030640938676483	0.02107636643276946
0.009098602187074815	-0.02715463095444604	-0.02462116358172059	0.03312828722709692
-0.007338008744850382	-0.06318889277120615	-0.03049348384173205	0.0102517688203313
-0.005868541269985886	-0.03818175451129133	-0.03162488612642174	-0.02028811645810998
0.001498128957603159	0.005662689035920775	-0.04038559101874579	-0.0304161285292991
0.01081157955711706	0.02810158750659215	0.002502473013476449	-0.03483486668646456
0.008202995931252458	0.08390013683786485	0.06710561931036671	0.001341510512986323
0.01263337720450074	0.09931674514717975	0.05183334666166823	0.02023691649369669
0.01731554452750612	0.1123807471733369	0.02526951450413545	0.009051593920638978
0.02267278768602274	0.07167409652263673	-0.008851686475233734	0.002432191490989701
0.01271950304033084	0.04362622997515035	-0.03256331851189152	0.000658838766172264
-0.005736439372800274	0.04802475223399977	-0.0318166896020517	0.01292645851299331
0.004650327189615226	0.04277351230049242	-0.04657473570527061	0.02380566449445649
0.01090833757463738	0.06146366613393128	-0.03006401138396349	0.02098830383618639
0.01189742848996153	0.009109073845340827	-0.0007009040101381143	0.03294486610139001
0.009157792807210373	-0.02672908818294119	0.0215696831058754	0.03577208723344173
0.01081175696162369	-0.02548716283916654	0.01422347405172709	-0.01256221832961009
0.01528780290326453	0.0328317854676357	0.01281095144263985	-0.02018757180233571
0.0209898180764524	0.03202036658603242	0.02070909660286781	-0.01589140997988951
0.02929633255307634	0.01421422046155602	0.03866998984863119	-0.01418096720462114
0.009008598678083948	-0.01570265180029494	0.02369003995726343	-0.04252913435145022
0.0008407343643564945	-0.06404301040651446	0.01857081884643285	-0.02180512165988661
0.0007198754702634972	-0.1252243869993154	0.01232515565629601	-0.009548080432787143
-0.01568999401396442	-0.1041069487421729	0.003930705715341455	0.007679881774872742
-0.03635870472381803	-0.04779444157908778	0.01961554318015974	0.05333607040018766
-0.03545288539580956	-0.0003106058545575886	0.008660840791054095	0.06434759234149801
-0.02898683712015725	0.01835555125337647	0.02518009605838685	0.04702966789901316
-0.02552298422212983	0.03118904599528478	0.03869983543476436	0.01714075015912464
-0.01747702306315265	0.04705627120062254	0.02077902095072183	-0.03250365990980603
-0.01054110714144374	0.03316687677725695	-0.00551996297913904	-0.04369380257323066
-0.005206240864149516	0.03210938997745239	-0.01659899125874791	-0.04546417967539498
0.01157586584768839	0.04882886881292104	-0.01714365708344257	-0.0362354273982871
0.01688179244920472	0.04527240723447983	-0.04044627799088813	-0.03187169017738376
0.003607790674757299	0.01253633653093208	-0.05538468658021188	-0.0258170427794414
-0.007974929437566905	0.0004407028229687971	-0.0657741177247136	-0.01065126503467981
-0.01096845617425396	-0.01280609598717404	-0.03430854529590122	-0.01091386536078048
-0.007820295536485434	-0.02777360584999234	-0.02475914405774931	0.00321893028391831
0.000167137557027221	-0.04470199606818408	0.005260243955397939	0.01430496183330782
0.0009091059098976311	-0.05139047967171483	0.007851722204544153	0.009889336675449613
0.007844366520953437	-0.03361736616372845	0.01574317133950448	0.01302351216981474
0.01947418043191606	-0.03718850216655155	0.01946655120298348	0.02329912531310248
0.0114452653684653	-0.02845277742764051	0.003870978944956495	0.04748196523571541
-0.006356683818546019	-0.009910644863238203	0.006592463328792023	0.05027469183630448
-0.03502583696566601	-0.02257203994436277	0.01108532039806302	0.06217824902514207
-0.02115961058897308	-0.006803096125632683	0.001610713571737115	0.03513410967864901
-0.01936503765566109	-0.01665415221003511	-0.006491518748857055	-0.03071936577339389
-0.03455112468704537	-0.03796711382684234	0.007777610290402078	-0.04433044923325012
-0.05245701499623377	-0.00598387606264024	-0.0178889901432429	-0.01147942334368057
-0.06135166845652143	0.0005632202503559644	-0.03113412291033962	0.01437073541743597
-0.03247732884664425	0.04557915329278624	-0.02893477682151756	0.008750576155115762
-0.008153865214720783	0.08211017580284979	0.007874304102142697	-0.02504253595506303
-0.007246396690142549	0.0623140448454261	0.04814998102307982	-0.03440518329825078
0.001729060562925389	0.0458233496883611	0.03282960175185179	0.01619992454355719
0.02250852826809396	0.05593881660549772	0.01173728977767188	0.005422103639187212
0.01736046754992367	0.04416123122549383	0.002006787812014729	0.01061655660521979
0.01836408135685588	0.03931958720895817	-0.02621870020114183	-0.03113472865062016
0.003663407057982338	-0.004615331594403614	-0.02178855093728388	-0.07702950058189331
-0.001878723589222006	-0.03622331314803202	0.01130371953442424	-0.08656424739005071
0.01188485545000332	-0.08176919978503942	0.03499295295477865	-0.02674945380725483
0.0103778368414703	-0.1225457784320712	0.02119183870223511	-0.0004131230612762831
0.01872638824231791	-0.09171596471021727	0.01466897762876485	0.009990739440042008
0.009916535907223877	-0.05886915833578525	0.05269608763511717	-0.004331195641454372
0.0187899089399758	-0.007018434173066066	0.08638976187742534	-0.03478700272801977
0.02708164143072959	0.05735149690740053	0.04929074515199723	-0.01476307012031761
0.01571797992979205	0.1136991721796628	0.02210024940446473	-0.0073157126734286
0.01145052574134313	0.1770105991432776	-0.01422497860195161	0.008486553873530875
0.01679633239473961	0.1333687840740368	-0.03342862195529436	0.008525268554653923
0.02096167501722127	0.08498664815980579	-0.03564928570064662	-0.02566779464633702
3.37640195074249e-05	-0.01120939018374814	-0.02095463659964852	0.002253423874118445
-0.01295855940900401	-0.0941063174066443	-0.03086478655159637	0.01027273719040661
0.01281017932313632	-0.1007069903781683	-0.07746797966945738	-0.0008374493521654765
0.02941569510453312	-0.08741662663335829	-0.03952456124364246	0.04707948636177677
0.01167039768169511	-0.07947338470424592	-0.02852635202773752	0.02915638225855426
1.349455982871235e-05	-0.05375485332497693	-0.01443665378628789	0.02394040369154582
-0.02298962055655551	-0.02723231522320628	0.003119084905402955	0.02012376899844017
-0.03436095976665194	0.0009493662877776258	-0.004013747169259006	0.01743327471235415
-0.01774444748044355	-0.0136743864966891	0.008251864074054909	0.01400349304263375
-0.02154342325190871	-0.029812972755676	0.01387177093764087	0.0140125163485594
-0.01629081627549368	-0.02219074823030053	-0.02366368030852254	-0.005403351539230203
-0.007450922544790559	-0.007289025362684259	-0.02752628643106541	-0.006410507889576975
5.594173506125445e-05	-0.01472306469600926	0.0003608672009316799	0.03192461305881267
-0.002928505602264952	-0.01194281749599132	0.01004915172823408	0.05055438543871713
-0.008901735901746075	0.004904185563063449	0.01809713776288364	0.04221984889168644
0.00224543834566806	0.03886712233332562	0.0001491371814914975	0.02028512536812073
0.00249035562540922	0.004807763656970988	-0.009633414276730146	-0.02341080833648181
0.0005682488073445337	-0.03896576304168309	-0.02739213070536721	-0.007869055101595246
0.003664589653592826	-0.02930730848827305	-0.02910225793128956	0.02780866976911351
0.02022612678954153	-0.02079205262476159	-0.01041744983615195	0.0343732211832447
0.02655760281951615	-0.001951048225575173	0.01389366685798188	0.03848558020887578
0.01162434897556661	0.003237048284634877	0.004156666867486006	-0.01782686036048233
0.0112325083069952	-0.008727062636364899	-0.00555471079965919	-0.05027068104828138
0.0127935386836743	-0.04096983314315861	0.01489519546412673	-0.03902168878209413
0.02249485455776237	-0.01377396727231085	0.01805249897819266	0.01721112923696758
0.01781314617359744	-0.003127005700701622	0.001735653251357045	0.02687821363984438
-0.004316214756813831	-0.02180191723372642	0.000297384509846603	0.02597372369516369
-0.005049079387517792	0.01722473639443932	-0.01153993547416819	0.02378687362803449
0.01609533133035768	0.09372514198231842	-0.01105937933999909	0.0186991406346597
0.00848114917912781	0.1253612114498007	-0.0100623369982692	0.01050549427926653
0.002895603170366814	0.1349068144273035	0.007942361285624658	-0.04188583217698334
0.006362629421119466	0.1403052406991016	0.02132252650048733	-0.09439566821940779
0.003981362923354324	0.1107833149541892	0.03165649850233007	-0.08990465691044439
-0.009744252605895306	0.05412197335565495	0.01419325317527647	-0.07770998377191064
-0.01090792876268465	-0.02346336036428097	0.009475102777694578	-0.02548056895673076
-0.0002344782747078623	-0.09550627383936598	0.004565867046248072	-0.005373859693757756
4.165875090329451e-05	-0.09578949117807387	0.008741409320005375	0.003491012059312144
-0.01888096852442915	-0.09412253473732354	0.008178749063421219	0.009194909401583068
-0.02875863625802811	-0.1088345687182671	0.0265768129824199	0.01595449507285332
-0.01551560823558976	-0.1056135582079257	0.01320961680590892	0.008316307260191023
-0.006637859677662736	-0.07400138824969499	-0.02254050050489809	-0.02202928202501359
-0.007525571009819767	-0.03973208204979242	-0.04069711677186918	-0.01468389739823354
-0.01023498254344787	0.03229337456265391	-0.02258146712982995	-0.004206088886514924
0.005942607988487517	0.07153452512195395	-0.02673378627646762	0.01437834063702436
0.01157001402424552	0.1100372688298914	-0.03659220858628531	0.01544090201555079
0.009296814497983313	0.09639436972154239	0.002498711650484439	0.01591081844507303
0.01166065077656358	0.09633898498824223	0.04009147423999744	0.01787270388118209
0.009447241787440049	0.04392569780923875	0.03887704734592386	0.03558617739672871
0.008975775608355175	0.009333998229853669	0.04858362866198018	0.03788599332183791
0.01028130475628559	0.04170218512351098	0.06441974772626649	0.02884558418947545
-0.004364235773730453	0.0005453326996545157	0.04884478384226095	0.02186762386130612
0.006419631533011894	0.01977991063275932	0.03738978326125552	-0.004593185524895271
0.004042960273869415	0.009964741868455732	0.02674492414401641	-0.0197811037589813
-0.001383277945603548	-0.006219245548096818	-0.0004983750618622873	-0.02447649392852374
-0.006581352815947436	-0.046669728153677	-0.02326996520524504	-0.0254473231109325
-0.01200162926678509	-0.07468481290478521	-0.05749065193018527	-0.01097268507220933
-0.01679486924054186	-0.07475306800976811	-0.06012742985071651	-0.005848563482482563
-0.00211284090928258	-0.06005820011367415	-0.05206904640423421	-0.001912134753337642
0.006312677659436755	-0.03065342399668341	-0.05452771287073537	0.01698713748097607
0.02952921948763466	-0.02184411975408689	-0.04576353121475821	0.02644889075074663
0.02734053570368424	-0.0009350752710967397	-0.008006165280757198	0.02445220000528748
0.0004397436375137663	0.00978118549357224	0.05186212290445581	0.06117089313697
-0.008300489015190933	0.02450862909199608	0.07994775687532389	0.04678338320989906
-0.009987049523146782	0.02213107868680511	0.03429967402034787	0.01989781512658535
0.01056464767239902	0.02546233022849201	0.009112457263275989	-0.01948956552718945
0.01221220608575821	0.002197273258716555	0.01225998380321767	-0.03548648512478712
-0.005838136096699313	-0.04781663581781902	0.02886079038466666	-0.009474536740074577
-0.009635221202196027	-0.06912856700017332	0.04577479072447443	0.02863093020745279
0.006017484624456494	-0.0618748144584057	0.036611674542091	0.03442152709710115
0.005598132363814262	-0.03255405562181173	0.02212043077173674	0.0182716466186106
0.01098326704583859	-0.009045768757400928	0.02613671763425632	0.0007685717839425964
-0.003886057653937018	0.02156853299469472	-0.006631170799931804	-0.038294508285173
-0.05400126952471679	0.03035392449672416	-0.0228220474042327	-0.05260747161112828
-0.06593008959966393	0.03109148756483563	-0.04352860889296623	-0.02158569816361477
-0.05124761893051409	0.03748006926900619	-0.05041935504073537	-0.005105156354124211
-0.04372553272086008	-9.640308416056009e-06	-0.04934095835929828	-0.01363210624427325
-0.02724893035873985	0.01050226822259891	-0.03624878121983843	-0.02545033684332085
-0.02056589561081736	0.02843518360063917	-0.04002458827925861	-0.05434494924022881
-0.008308103355748725	0.01531323154645448	-0.02474826798347207	-0.04121745630525663
0.001033306642665431	0.02557402694141516	-0.03215228016014465	-0.02657268822218753
0.00649481362921266	0.009226659035790953	-0.008430502548248857	0.007465970724934142
0.0106604644038831	-0.03026940080053182	-0.007467454443626758	0.02227836907432071
0.01410295310547673	-0.02343752033248522	0.001039169563929949	0.03021074415945693
0.01448576639118436	-0.02239894556894754	0.004967382408031405	0.01761090878961888
0.006833802398745085	-0.01630915862956962	0.0129757191296093	0.03948055492440321
-0.002184953494624076	-0.02276224003936596	0.01022493480421382	0.06416289013206268
0.002926596392267592	0.01655822727095402	0.00273427111377657	0.06329879916084036
0.02166019315132191	0.07325693179743246	-0.006660850645941764	0.03804826049659562
0.04366898733724305	0.08041466907233295	-0.004052252569493322	-0.01166870848520943
0.02595089839009646	0.01471826549535593	0.01025857955813825	-0.03410507186058009
0.01751741550763186	-0.01191956288607259	0.007745506263233512	-0.05520752445906194
0.02815968255349763	-0.0558981055992638	-0.005213280268243837	-0.05084901232121742
0.03682238951209762	-0.05528721873105166	-0.03936356621728695	-0.05920084307295494
0.04344766655928062	-0.00107170368432077	-0.05093557685211907	-0.04895664170723267
0.03464211071587893	0.002038139783968971	-0.02843651723136999	-0.02016613804282892
0.01526846128716775	0.001050049700482908	-0.01940003168951948	-0.01610869873598319
-0.0356399450153083	0.003742177831234445	-0.01730755839756112	-0.009703933625676923
-0.0465707319849296	0.02397295353917606	0.006850751627917265	0.02432628364017603
-0.04730728841857468	0.03513716162985462	0.03751301802247525	0.02521036875839574
-0.0296896720400893	0.02995232714677228	0.05117309536208938	0.01566256478992476
-0.02451232598677468	0.00650020789450987	0.05454302876287463	0.004456382831522164
-0.03022058390872567	0.01963716682611552	0.02726786967515678	-0.02106077410376373
-0.01907861064930257	0.009381920425257675	0.02442937382206644	0.01500728262540502
-0.0126673238200963	0.001807160195086599	0.02287680303447754	0.0220366297526664
0.005138878728788116	0.03358898707237633	0.00670049340099884	0.005192939581771383
0.01930161826321944	0.0296132098499013	0.003653245381627829	0.01001031271029702
0.01774773363378153	0.01904845566695573	-0.00912922370721349	0.06186435384738537
0.002413041846279654	-0.003722288767676551	-0.005774407878870364	0.05582959245132973
0.0005317212756364275	-0.03009507886203091	0.009051503317331816	0.0371424927807788
0.007259876988958415	-0.04386833760643164	0.02351350928711042	-0.03284050227730253
0.02176818793763967	-0.07739194605201537	-0.0003734461172923802	-0.07857184725155909
0.02725162972248396	-0.05344198981954707	-0.01763790822877343	-0.09959916310449562
0.02010679992835765	-0.03482607931026305	-0.02828103884532796	-0.05681742849739901
0.007798423055730469	-0.03077955166918094	-0.04666705791116217	-0.03085677260834691
0.006318931327884397	-0.0107295656860329	-0.02346136008944466	-0.01164050134271973
0.004512039168207949	0.0324753482792071	0.01133564175438805	0.02833497744089991
0.005936789939424351	0.04191893831489614	0.01632887919808302	0.02923848239568021
-0.01671563426263835	0.02209280285172183	0.03491882294534508	0.02537073979281275
-0.01368117823772087	0.009999409030791006	0.04084036574825547	0.02335979391462135
0.008915024075949371	0.02838310249966818	0.0238405655345213	0.02243131091615854
0.008211193482036841	0.02262860587487546	0.00123665845308981	0.0212585488977342
0.0131217757330348	-0.003064574524493008	-0.0451400031717004	0.01021932892574543
0.01860882327433765	0.0215729321780874	-0.03059427842963172	0.01540208817306954
0.01817917078675993	-0.009461039158891764	-0.01816113188283335	0.01517974330128406
-0.006799421692631772	-0.01075514152168723	-0.00847484126833223	0.0008779563562343474
0.02283141124312687	-0.02644185558443614	0.02376061460896428	-0.006780458147332556
0.02317413848657222	-0.07872692010213779	0.01289181758387128	-0.01291716478449591
0.009055429836715416	-0.05383129531589136	0.007120849598744037	-0.01666175004242272
0.002422682215398932	-0.02829157316484062	-0.007971785941879314	-0.008659674541674354
-0.0007180360169488504	-0.02903068330050013	-0.03203233245990914	0.007378673852203472
-0.001085857794926314	-0.01458497264081077	-0.00159055981554878	0.01019519673386636
-0.009019446757247626	-0.01539069677732589	0.007987022070433444	0.006004001155339626
-0.01655155580371953	-0.005038403812056952	0.03046800280764335	0.0004974135433666869
-0.01938432835309394	0.01206496476688191	0.03017589993260557	0.01678479469071072
-0.007757381633283482	-0.00553245626517963	0.04298966464240605	0.03158122989497286
-0.005444768079198683	0.06155889526917494	0.03191915929968454	0.02553865658754362
-0.009104203180037658	0.0658887507307471	-0.007260681258565604	0.0372815535403424
-0.01019074942530553	0.03494212611253811	-0.02155097649295224	0.03036618594770465
-0.001943187638835047	0.00363044654632117	-0.01201825860331204	0.0347793993400108
-0.01073960199148153	-0.02242339467351236	0.009669026883174966	0.0168614519884985
-5.901198134448222e-05	-0.06411127228502506	-0.008303163399868776	-0.04518835332566933
0.01331602281757846	-0.0855448539912209	0.001230524031305446	-0.08492002188958341
0.01386320494696451	-0.04077083844304027	0.004459588784241224	-0.05704035914961613
0.002117315382611328	-0.008843167051184786	-0.01049161750813973	-0.02906591852253401
0.002847714362992767	-0.002629939765172783	-0.02234004139060313	-0.02411691202131546
0.01388171622467209	0.02018850436655902	-0.02638878560464447	-0.007218147374942187
0.02489373876366814	0.05316621586077809	-0.03486845331609193	-0.0115970567458462
0.009995456686455609	0.07135509585205421	-0.03235994216997727	-0.01443117836922899
-0.001827433151139563	0.04350007041797949	-0.02102119174904247	-0.01206525652509744
-0.01368025235275144	0.01494620536197758	-0.01975514956208346	0.007388175694593357
-0.0525680903412846	0.03795878805268899	0.01120919945637063	0.01392814651825772
-0.03242433148370003	0.07549103442924403	0.0489219598666758	0.02956161229571958
-0.008218755760924635	0.09490719473745725	0.04776418944114817	0.04141560496355923
-0.01806016552064637	0.06864178578998012	0.01618618748853959	0.05875036642998904
-0.02200507166409619	0.01721578469721298	-0.02390956095026864	0.06820819920083349
-0.01406742531402205	-0.01593246643045425	-0.05998658759148037	0.0392486634298953
-0.0237031192142432	-0.04892938209252	-0.03680607831064685	0.002149408582357475
-0.02786426326749477	-0.09636894883382535	0.009696854751407304	-0.0239770402430617
-0.01308615568062307	-0.09254405657550609	0.01242317740374503	-0.02662703557409828
-0.006017155713323026	-0.07391466718679766	-0.00291755407789252	-0.01324727855496262
0.02129229033259358	-0.04298040783373907	-0.006620330597829275	0.01257891455528566
0.02067489575319736	-0.0009456231315334822	0.0483659707289535	0.03532142204949435
0.02394376952099241	0.03735074205739831	0.03208399188737732	0.05252398482451396
0.03214462909541899	0.06664975019393102	0.02118824022320335	0.03292519846363594
0.05157030713229838	0.0586451630313046	0.01584397350262213	-0.02975341955053203
0.04306026541876515	0.02420623372814728	-0.002477929192104805	-0.06265715722882136
0.03643664425104091	-0.0234286834293425	-0.005708068547222272	-0.08622545716909914
0.003685731883951995	-0.02008600001402962	0.007139712811357486	-0.08133651420795217
-0.03848254430702262	0.002817976837923903	0.01192701183303189	-0.04312910989843963
-0.024697062821619	0.002533850492217958	0.02491823244019317	-0.0244579902468379
-0.05042031835442822	-0.00439189852915324	0.05171050569300514	0.003518090904629045
-0.0427433637345442	0.02795861327593923	0.02711749819529985	-0.00628995755653323
-0.03040743730640999	0.0722850528925377	-0.004948012060118034	-0.02332611899967577
-0.06143120260495914	0.0003500139291337213	-0.01512425675052707	-0.02154659937818279
-0.05105906867501113	-0.02528040303888697	-0.03019448350749902	-0.005976210616332987
-0.03505656776399634	-0.03617409755416675	-0.05646806242755333	0.01070694839138091
-0.009910550299537826	-0.02412858042476624	-0.08334963847319841	0.01804372306442571
-0.02192893137508673	-0.0028936591194612	-0.07545270140664921	0.002685391622805902
-0.01088732669176689	0.004545875656795293	-0.001729781157532066	-0.002211198834924694
0.004306334754442884	0.01055297886270131	0.00710263335515619	-0.007143158217302307
0.007853238136587842	0.0002358116808550762	0.01085968336792413	0.001788317762460705
0.0106748685066184	-0.0004435315529805871	0.006995409790316056	0.02125516361245941
0.01365917483365191	0.003515313367044771	0.00125463078636685	0.03019468040544403
0.01428170864022344	0.006792751837992159	0.006134144930962835	0.02808445706844288
0.01588621749808413	-0.01672119024900296	0.04776923446591275	0.04297878976886695
0.02111761906575711	0.0008694499413467065	0.04902564153418443	0.0540333451164178
0.01029980003847285	0.003857740552712935	0.05057428544922109	0.03732459378228341
0.01258891161390887	0.02071007013453223	0.04672995268381791	0.01883154688869127
0.0272592741403572	0.01195121525706748	0.03163383771969996	0.05525979137624046
0.02836341977094377	-0.004852000130292133	0.01019931621348101	0.04680230354078158
0.03451630486290804	-0.01113505806193851	-0.006347234115825195	0.03307241795023923
0.05366945267226977	-0.01035231639920301	-0.0138516046149621	-0.01502871956521425
0.05178128637843266	-0.01521618128165136	-0.02248826678182682	-0.0630011977852786
0.04684506570105872	0.000616225058209995	-0.01997116578571761	-0.06942665649564435
0.02927175417675382	-0.0114582974825942	-0.04585959125206837	-0.03611957635684222
0.01062950094583367	-0.01465792594663885	-0.04167292595104555	-0.03295334302045198
0.009303856443159222	-0.03227929479523005	-0.03490875781112197	-0.01594046302637649
-9.785288713946708e-05	-0.0697512292936199	-0.01305984024942015	-0.01653584419875521
-0.01276929258544706	-0.08437262256476759	-0.01076346575346473	-0.01696821165684406
-0.04218337183581478	-0.05978094880412833	-0.01509892231255406	-0.003021333842811332
-0.03477929323105273	-0.03966025080053601	-0.01171532741987817	0.004893533994024266
-0.003575888962017584	-0.01075296404279882	-0.01430916154963482	0.005530404274849263
0.01616408432785936	0.02350456274264007	-0.01013032744415912	-0.005646446671918741
0.02171243091785107	0.03726867249688282	0.01397870983473784	-0.00897717642667618
0.0253177524622308	0.06006004507335228	0.02744796445413254	0.001183503406519206
0.01061127326404056	0.07731444942838371	0.0289808670667966	0.002711990839955615
0.009552882076447507	0.09107628659080244	0.05668633773885085	0.008066487141643298
0.01256718171569077	0.08120111378575154	0.04251621508880549	0.01096245643116201
0.01471276570622281	0.04806590192313293	0.01689469860190389	-0.0002682233177653281
0.01171939374826976	-0.02566066907184819	-0.001000844793860701	-0.004729608214355247
0.002661445531791851	-0.04874109289209225	-0.02176281462351228	-0.003316565940988767
-0.0095816057701735	-0.08599959608188441	-0.0311212182321847	0.002258416927065705
-0.009355929050473217	-0.0980618561875804	-0.02968015255944877	-0.001842144821568
0.006855716357206298	-0.02608009458392478	-0.04095926049012978	-0.005637190446825703
0.009597213461853302	0.06443822138759565	-0.03535467931990865	-0.007560815125101939
0.0002246044266581606	0.06195744161117252	-0.01983327416973574	0.002413974924136818
-0.008971829820130851	0.06171895941442947	-0.01224450288086848	2.720832629142999e-05
-0.01220140738076722	0.05626274036405798	0.006119435097393403	-0.001502669944833004
-0.00779008478056571	0.06269038039723873	0.03624254175187763	0.0287303361511906
-0.01552298628834396	0.03997605958709762	0.04567145682060181	0.04080723778734169
-0.02798446171372156	-0.02211695785080584	0.03868422173806776	0.0442862194408947
-0.0127115521986478	-0.01067574918462643	0.03088612916922761	0.0283440681568574
-0.002553948566130343	0.03665093636805777	0.01627744458524142	-0.002653944687130239
-0.002804100686470272	-0.01953531590360062	-0.0006098502431452706	-0.007337984862149777
-0.007162573940648617	-0.03118006524544313	-0.01352658335677649	-0.02037890438650776
-0.004927440621324981	-0.05262105782985379	-0.006957778965384936	-0.006656333268534525
-0.003381336580523091	-0.05523327944850512	0.003023619958926877	-0.002573057040903127
0.0122081792215317	-0.05176636087396399	-0.009709362298944462	-0.0231136913740196
0.004463168845360208	-0.0442390609666897	-0.005311537608642443	-0.06148337038428679
-0.01386829984433766	-0.044591233961988	-0.0009844388203855939	-0.02989518487007958
-0.02837199500681295	-0.04594679258733454	-0.005191011834920076	-0.009459103583744176
-0.0174525891739336	-0.004834661179442547	-0.007501539683938015	0.008802537164806504
-0.0190852692842663	0.004839990533980944	-0.02019807595139167	-0.004477647848007069
-0.005777842153617073	-0.00360164580431702	-0.0196196568154826	-0.001788062636733563
-0.003658057817090469	-0.02006559037542148	-0.05014795142113688	-0.0175016656459107
-0.02862783771507514	-0.02904226722936662	-0.0532549068522376	-0.01859645853304875
-0.03423247076665466	0.0281242884149606	-0.02634635177457636	-0.003027033914109576
-0.02742845764089487	0.05981650264991704	-0.01391818951297345	-7.173271697247989e-05
-0.003968282959227472	0.08261115581563092	-0.009929846221744447	0.02237778737092153
-0.00239745824362511	0.07140668604065815	0.01699019011730476	0.05423224059285832
-0.004416335781598744	0.07183801767386455	0.05383084803224397	0.07762220390301085
0.003116085849688384	0.06167359183210031	0.04034064147281941	0.06857606957090111
0.01039765737477728	0.01709736558633436	0.04137613156267728	0.02518306988120393
0.02062089168247989	0.00675841149316342	0.03551004371855929	-0.03495242186660188
0.0003449671229414893	-0.02334895063868024	0.02936295345423765	-0.04997076484766824
-0.01229645120885603	-0.05735009689489919	0.006447476083445028	-0.02904819282346712
-0.003837178193955027	-0.06311977163734928	-0.007370049732376355	-0.01104613442321276
-0.003491105538108965	-0.07086084350838245	-0.003997425103610578	0.01851801859660874
0.002872754346261188	-0.06607198761470999	-0.01114961772013688	-0.01086484542519413
0.0009117524461518744	-0.05825522397631924	-0.02168957677428718	-0.03376531191510552
0.003885599705572183	-0.03514743699292495	-0.0240317521189726	-0.03911651001248969
-0.003902225383156654	-0.006375819691292652	-0.02517201823237622	-0.02947720285590841
-0.006608967949270241	-0.01443054226939507	-0.0214724927149564	-0.01178249706887304
-0.009935592197267215	-0.0331742129801426	-0.03191560244449479	-0.008365178494516181
0.002460114546807825	0.02710724391383281	-0.01097105207741085	0.007267316545898628
0.01440169175412	0.06407354378806916	0.001889054760801144	0.03189104370482727
0.0051092028732351	0.05291840055194389	0.007816875272392148	0.06688074772626276
0.01579541796049366	0.04874361383363025	0.03275624199526078	0.1054968716405964
0.02420019062683808	0.05272947920956779	0.05802925438182141	0.1061044776184765
0.02133852211607019	0.05489198848221207	0.06927659692248825	0.04091044302024577
0.03592695385766623	0.03408571607906278	0.0738670084340781	-0.02979528724255759
0.03552389735976958	0.02202090237945906	0.04478358974782312	-0.05338478023943145
0.02875562510652702	-0.004111001895242893	0.02786961102339768	-0.08263186118172242
0.009334048461587474	-0.003674798369570143	0.002264832965829663	-0.0662634350788005
-0.003283429673518616	-0.02997270477902691	-0.03161938562835683	-0.04993040280029946
-0.01062076802997581	-0.03471076155463688	-0.03603461155013528	-0.03857567950010578
-0.02730949939868905	-0.04924716044411694	-0.03341061070101906	-0.0173806075900464
-0.02890075517689966	-0.06227812031325874	-0.03828394655576237	-0.006068284187983017
-0.03296718278935633	-0.0444198952617877	-0.04554537256764501	-0.0230383528509018
-0.04475898410252985	-0.01165442764250501	-0.01755374483192057	-0.02601058261074358
-0.02750794843601861	-0.00258183922286166	0.007868464618230191	-0.02091369422908258
-0.0007535315025980675	-0.007695944848138065	0.007138390083669466	-0.01465145267348235
-0.004090261539592123	-0.02771555662870849	0.01616459013826677	-0.01175129512234414
0.008342642766299703	-0.003334028339570934	0.01443872017616687	-0.002396798320902167
0.02502698867751199	0.02951372058490472	0.01161565625316935	0.02128841049305291
0.0218616806907971	0.01273909204368929	-0.003543889175582537	0.02720231989555563
0.03546081909651945	-0.001170389715372809	-0.02363210521270663	0.06891541335047673
0.02115589301812595	0.002572674686157775	0.005117618809107394	0.07489634930006786
0.02545353496960363	0.023340483669629	0.03879133735759481	0.047926527790578
0.007371289205051577	0.00269070805036001	0.003600724340464283	0.00702346981593081
0.01825982675977101	0.01361170069897276	-0.02367044956326648	-0.01983895663368536
0.02567067546219875	0.02666953236340053	-0.01862897301288808	-0.03021336381927279
-0.001522731483625816	0.005261231323898253	-0.008851723512465723	-0.005321165884539748
-0.05890461557027545	-0.005856323691671622	0.003253350954522395	0.009478248345786859
-0.04522865561728037	0.001721869016506813	-0.006566605558620589	-0.03912209167433529
-0.01287188438627146	0.02574380702562751	-0.0253494912665835	-0.06788826223450078
-0.01170702255986897	0.02987404361064808	-0.04937168375942769	-0.06295477858049409
-0.01690071169838427	0.02796628255755612	-0.04489332380943624	-0.02388791726660747
0.007314783170082414	0.03819684982998713	-0.02554338465274757	0.001763142595309108
0.004434596897250714	0.02561771547572467	-0.01456969703249949	0.006497257629458846
-0.006612805848214711	-0.01353665074398721	0.01673668765049949	0.04421779474114688
0.000405540202688427	-0.0442334129372802	0.02994776901410072	0.06157899132224387
0.005627654986169879	-0.04465301367751816	0.02152412436376386	0.04853481076476
0.01064845965427865	-0.005233003184417259	0.02320290597343399	0.03040114628426307
-0.01209391881319855	0.009001549917924932	0.01333102811406206	0.02437028593823997
0.007897554013378737	0.02594804765533416	0.006894819317411208	0.02828894997280139
0.01684183879921786	0.03397990240196498	-0.006575837521959359	0.006243810613715722
0.02164520567906282	0.03683946322606074	0.0002098390495441524	-0.002601192458486309
0.006323142241525547	0.008541087285949463	0.01502705253964487	-0.02837715281277804
0.0006977649202815988	-0.01204688340280022	-0.005568416946086902	-0.01558624686588546
0.01860311429845147	-0.02277953619855514	0.003994381132827104	-0.0230995657987816
0.02894990295187451	-0.003233040650351645	0.01138238483287745	-0.006167849828330857
0.0141878820876347	0.02663325372587737	-0.006300525659747641	0.007514765777232688
0.009882529640123212	0.02080659464948961	-0.01616601774896632	-0.025598483045263
0.007874043069820974	-0.00555677202899207	-0.009774269471171262	-0.05366142698345586
0.000673657661176252	-0.04025109518580752	-0.009829239550320439	-0.02475843129835116
0.006816546336323567	-0.0162396048050297	-0.004502139202390225	-0.004450209393998063
-0.006764155702670815	-0.04298987782524956	-0.002473782354598163	0.003048970963273626
-0.04211359968085217	-0.06793249092317134	-0.01537118962260952	0.01697486332261747
-0.01838993664115856	-0.02223249078276001	0.006685461332474643	0.02301294245628741
-0.01747975037624524	-0.005451712202219091	0.01482751074651075	0.02963382421361804
-0.02640208984046106	-0.03439254736870789	0.03038284815996714	0.02389381214333381
-0.01388327054732355	-0.0125246756008602	0.02814848434595214	0.01474876018565118
-0.009357168767831164	0.0001192013595792369	0.01606932692992105	-0.0002829661697663455
-0.003800111589432941	0.0002237941389136242	0.01289559869007658	-0.002075718631495391
0.006105937262928515	0.02752787236629119	0.01774036591278002	-0.002896130890828693
0.01743055581322544	0.02967707432382281	-0.01053304186418841	0.003145294703456779
0.01608887175619508	0.02491599022084	-0.0176762199335678	-0.007555736106356968
0.009992051945587083	0.03177626748114785	-0.03647679644143594	0.003196357289897111
0.01430300886942977	0.02247278618068665	-0.046491234354675	0.006640432390629883
0.01604333482987143	0.04129880314491588	-0.04388004348829191	0.006662745077095533
0.01535380878062734	0.08632854220665187	-0.0225668784514603	0.0009070576813320952
0.01572141227053295	0.04393559817992865	0.01513446892211356	0.003501102719831143
-0.02008054970871027	0.007176474785246802	0.02516839704501975	0.01476508178640374
-0.01139225428711186	-0.03156834838039486	0.02738595868513439	0.01930384270545508
-0.0003869713878833745	-0.00550177361808196	0.03677805302654392	0.02090518440229107
-0.01969103686220881	0.004995814925956162	0.04034671049961707	0.03329907800290294
-0.01956015003073247	-0.02729216928755573	0.02785725551061722	0.0286008140253832
-0.003607495151056477	-0.06408920942890022	0.03317254893689381	0.01538291662888985
0.007350677718341228	-0.06756019258378992	0.02067865892913438	-0.002331864518741398
0.001256941976447961	-0.05057134347127847	-0.001756638633520437	-0.03009378684165518
-0.005109885527739505	-0.02483899241415631	-0.006477597768239319	-0.03259712683560888
-0.001281186211999495	-0.01972256369384209	-0.02308273065419263	-0.03752872802917554
-0.002405032806528715	-0.008574227169115045	-0.01806767491964498	-0.03199456227805215
0.0009643630275122784	0.00616885756879092	-0.0243569858113169	-0.02721991968407457
0.005125744504874358	0.03601812180792991	-0.0301531635672741	-0.006559475642651569
0.0001185185727337911	0.0544375232027704	-0.03581596909503117	0.0003566390444605685
-0.007032003548539742	0.01760091064305697	-0.02520672227043803	0.02681642526776921
-0.00672031517005214	0.003377384476794709	-0.03147438324818831	0.02774699484172405
-0.002732031811825035	0.00596006369975949	-0.02118437079935599	0.01641257983203454
-0.002788028539072107	0.01864301375632875	0.0006031501997133943	-0.001526374607038446
0.007241112615837982	0.02723853559751366	0.01280953927208867	-0.02273431356571581
0.006126069668893897	0.02296404799406217	0.02546690211415552	-0.03487522655458338
0.007038817646111983	-0.015273162241636	0.04535818846596594	0.009807402210395513
0.01430381599706589	-0.06117045727112061	0.03105479795958926	0.03118439751569408
0.009193486049865253	-0.04741828134440917	0.03657574923549898	0.02633202537259766
-0.0009064414375252233	-0.03687787659419201	0.04422460400816879	0.01999242887191681
-0.001608343020984635	-0.0727480993761412	0.02235211351423323	-0.0003921700424054216
-0.01011676299376486	-0.07388981956500468	0.005427423052914558	-0.03270629749812357
-0.01922126949103603	-0.05541718373525539	0.02950768516174452	-0.03179657128587584
-0.003205873890576003	-0.02644197058037749	0.01483353399214313	-0.0286618044833269
0.0001581467613877949	-0.01459549548163344	-0.002100215275307855	0.0371856017975721
0.003073330110099061	0.0010058985053816	0.004311345434233818	0.0464704770765275
-0.0009464275847992025	0.02881359383937289	-0.01742821254526832	0.0696339769282919
0.002778928576232472	0.09204560897790592	-0.03358683582100738	0.04406470097915853
0.0001132890351434341	0.07742861281503416	-0.05471220184778517	-0.02030197005459774
0.009189815360689805	0.07209873525820026	-0.0497482623684895	-0.0815570247594538
0.01631971310812463	0.06582237849058546	-0.03115626589484916	-0.1212517462031944
0.02320261494461485	0.05321753353393992	-0.01257443456622835	-0.0981859071847121
0.02970814135377951	0.04236430183301709	0.009697469183107548	-0.03525868272460041
0.004785030132031419	-0.01973941073662627	0.01723293101594053	0.01315828241152397
0.007593299123088001	-0.03526829269445073	0.01597515015320528	0.02154087769913614
0.01461325546821935	-0.04209005008476682	0.03691870533735755	0.01103209309559325
0.005708864635065081	-0.0458996853582074	0.02504567843233777	-0.02813069483673696
-0.04367219217387329	-0.04079298920417928	0.001839405168123728	-0.03017676888716713
-0.02941723672711587	-0.00825420609213728	-0.003365699178677618	-0.03567240063897107
-0.005829896768713504	0.0005325388762884267	-0.01159577694568931	-0.01528013503197805
-0.01066613130268318	-0.03827661378894567	-0.03697193019972269	-0.01699853517560842
-0.008265465094615584	0.0008461329997579275	-0.03521221528069961	-0.01269081655423787
-0.02032673384187919	0.03707814947079766	-0.0090712364634087	-0.0003651749424321467
-0.01891532191666962	0.03498693089064733	-0.02187924549010229	-0.00620520092268136
-0.003848290910475074	0.03045814561993971	-0.02090538836356255	-0.01328790570501106
0.001779343240668174	0.0381203591515666	-0.008834581418377476	-0.0004025512198890758
-0.0209400572352841	0.02870768299958481	-0.01687758234086768	0.007649932891352643
-0.01952697879385853	-0.02103034784046366	-0.01038142639578196	0.02440149795273842
-0.005600717179279927	-0.04656024104781917	-0.01497208691091847	0.02959682221509272
0.03112182326908928	-0.02066753154961901	-0.002191019662659889	0.03593010922672789
0.03023443149994012	0.001803495386050458	0.02705041066762303	0.04639444953073899
0.04919073411025358	0.02285769246187294	0.03113788707671927	0.05454933788991555
0.05147198451790543	0.03258668081132596	0.05026128857442604	0.05318367586980981
0.04659988427942238	0.02544599547929118	0.02653768346538196	0.03725705246794266
0.05301966667516242	0.02467221222243273	0.01718292913881696	0.02067611654787562
0.04057517377392113	0.04306999882495381	0.01392780611547905	-0.001282166613204627
0.02417364226567234	0.03829613217331083	0.006464285958009818	0.002108707587693666
-0.03117590595238019	0.02549327497315103	-0.002509031453357862	0.02645578261864049
-0.1001187361710378	0.007237954061063452	-0.006880207215855966	0.02851545649404224
-0.07952252785644638	-0.01889350114902176	-0.02709937325872807	0.01212251253439141
-0.03105956641457617	-0.0231989362731831	-0.03998828430943002	-0.0136526567528372
-0.02694382935527185	0.0001144791006312297	-0.04799386959703394	-0.02552009490912553
-0.0612486014979762	-0.008278382156087597	-0.05329075401846443	-0.01851394851131015
-0.06463231543728447	0.001821192356470379	-0.03212892078966517	-0.002258875753689458
-0.05037871662944148	0.001784493872874577	0.001135149874360464	0.01119378675604522
-0.02528199630291732	0.006262034579429006	0.01592480084531204	0.01952355371442512
-0.002479257914389443	0.008771978067612025	0.02813928936364315	0.008363733567918084
-0.003585390642107556	-0.03376108344118379	0.02571435488794615	0.02500405590501259
0.00253149304415796	-0.07200873073239071	0.03182526344391975	0.02064595319764106
0.01445449541418144	-0.1063182186539384	0.04028760203390634	-0.01124091218749184
0.01106464618487766	-0.09739079401080541	0.04422534676393437	-0.003481731393837291
0.01180828070209685	-0.07437227005068123	0.02440656964926473	-0.01576853141707908
0.01402532158253942	-0.06366815419259846	0.007439474905618851	-0.02653678769546229
0.01553072318083231	-0.02167136732048255	-0.01289126330405417	-0.01402146373146872
0.002627018283491745	0.01528874709743364	-0.02334431546390484	-0.01593219379788156
0.005542043336772088	0.03549628518037562	0.003783064623622915	-0.008342209003149871
0.01354898847580036	0.06689242465978999	-0.0008381090590171194	-0.002132996798965676
0.01845958280467707	0.08533784256364688	-0.01545731412958889	-0.008427038673900357
0.01487263291660993	0.05076001222179773	-0.01607190753723629	-0.01625065591436294
0.02058868647312213	0.03185439837174981	-0.03821916336931978	-0.009656106772672278
0.01707919062760764	0.01632282742011625	-0.04798117201885699	-0.01167670513623439
0.01440412097923988	-0.005117047535466971	-0.020255858316986	-0.008980488369310908
0.01187724917697984	0.00746871007735928	-0.008346230359456776	0.01476482389431173
0.007743889531786591	0.02220498968785651	0.02044398831495814	0.05399016155948382
0.01444053536653459	0.03332580270526692	0.0484071800901713	0.04218430589696397
0.01193103050773156	0.02115496865567522	0.0343809783193816	0.04305328538128048
0.01166957591345235	0.03543117062656721	0.04089956745726319	0.04476334075914094
0.01036800997320204	0.03741512877056414	0.04573596684575559	0.02226592376718029
0.01448245196507428	0.04256649532140584	0.01623834139895076	-0.005590007274534312
0.004656296992626203	-0.01440255420805423	-0.008729326443055241	-0.03947360909809898
0.002181696664985622	-0.03228233017474126	-0.01212140842665159	-0.03961385691506222
0.004425775034069553	-0.05476576372800655	0.008253327895950305	-0.03761426605474395
0.01857387500817897	-0.0520432908870086	0.006216042799362278	-0.02633046200891034
0.01735686011488223	-0.04962877603313343	-0.004985845893651162	-0.02672594185880458
0.02862187694083375	-0.003767058757960489	-0.0108518225118337	-0.0235214589828057
0.02774088833122388	0.007751220872599187	-0.01843649903667225	-0.01589399449150336
0.0238926016292983	-0.009550031856094781	-0.01824594649628444	-0.02498756343971325
0.01105853636479888	-0.005691075576583246	-0.0255756305023099	-0.02266256444145403
-0.001473072866345015	-0.03345704796978674	-0.01081636732241842	-0.008101790959205992
0.004942266083384177	-0.06970683264052334	-0.01445813504021908	0.008210427830409765
-0.01002448066690851	-0.03921459887170423	0.0172628721239556	0.01899728359227042
-0.01927450826431279	-0.003555953968493445	0.04606778433409957	0.03395791678535828
-0.01319792087138678	0.04517099645698804	0.0539169221456305	0.03034346003548518
-0.005725178614889184	0.06487577614116512	0.03540025436088941	0.02661343077290177
-0.02034529025811276	0.04677981587491894	0.007726417635289728	0.007557713246302349
-0.01666185509778558	0.0476155259454255	-0.01180574799486059	-0.002790018661839576
-0.00820798356680443	0.04284761808306915	-0.01489515526458089	-0.004832749370552577
-0.002287738536551102	0.04763964415079599	-0.03554263865659238	-0.001806343373368091
-0.003359679008914186	0.04628802882070358	-0.01898053197607297	-0.001252624526613596
-0.01180167156108168	0.01474489474932241	-0.005040423562918006	0.01797013740382732
-0.005772604418652207	-0.0168453754812517	-0.01488799493078654	0.0270749355943612
-0.001694993402180199	-0.03617804461809206	-0.03265440383668081	0.02697804679483164
0.006157949848046488	-0.03998034678429841	-0.04487871663722311	-0.01383055186166135
-0.002839598737012548	-0.06036001797815048	-0.04655052828363878	-0.04853820795102476
-0.002419119134303957	-0.08775743364673042	-0.03127238033077157	-0.05948188148262038
-0.001972375405123685	-0.07914553567543149	-0.007937350210388702	-0.06235373272945065
-0.004133080632865043	-0.07176705346400475	0.01023527002535136	-0.02811671489631492
0.006201788960577616	-0.04993261674041271	0.02825699399053164	0.02209131356406091
0.01268401292307154	-0.01310854051605914	0.04777547258152871	0.03676261968100379
-0.00536817586980892	0.01185836713754765	0.0383013187985927	0.07499476569014807
-0.009299909670983365	0.0249675001831904	0.04187984483140461	0.09137499843330471
-0.01661909299538476	0.04983615865037199	0.02494783751575827	0.0703578462162308
-0.009146066650028217	0.0795639960292929	0.0004699703401241671	0.01023213119403339
-0.01239176710121987	0.08463596655851933	-0.003152622497794591	-0.06654857586508701
-0.01470081619238484	0.06143101120960005	-0.003154869530898733	-0.1043213609942062
-0.009519387166499284	0.05513532793993477	-0.009210961889149686	-0.1395165646340557
0.00283374438353544	0.05761517542647317	-0.01910632088756109	-0.09119628176741069
0.01087686797502518	0.02927148565344388	-0.0210069349713311	-0.0507934703614433
0.02154476483041933	-0.002257690201796468	-0.02447534625908149	-0.04295643643802686
0.01578641625487832	-0.01838899771701407	-0.03535405997251895	-0.03295939772257725
0.0004441973433760405	-0.02623935957613488	-0.05810649287945156	0.01760104505104963
0.008268657145996736	-0.01894429192115386	-0.03818613902522132	0.1178482010891332
-0.005514077126266666	-0.04021472622441323	-0.006207737497350716	0.154654385444938
-0.01577494060052775	-0.07624532245806608	0.0274365454525989	0.1143528084421802
-0.02539265530965648	-0.05364561324076169	0.02659571574729149	0.006836648439381194
-0.05848313209561676	-0.01511809115433912	0.03093876829320771	-0.07983239723859542
-0.03647963737378208	0.002291832457741209	0.04496360922529671	-0.1453030104456215
-0.0170829809766812	0.02316481795870862	0.03169920162840164	-0.1165886832887881
-0.01340426181947844	0.03479676260863148	0.03854960029749296	-0.003709140115580141
-0.008562697531097037	0.04342888557103172	0.01164204856955569	0.01647287558700254
-0.007095597122649788	0.02183269219652986	0.01880720654650325	0.005950467833230141
0.01513069873364109	-0.02862658398475584	0.02354118160699961	0.01628551476151934
0.005394896509402611	-0.04739360315362791	-0.008145935631031	0.002567555477977805
0.0113001091809613	-0.04619679224743117	-0.004577307682088075	0.00173258780875249
0.02075996677251482	-0.03733914920749944	-0.003370150404945004	-0.01073692399086592
0.02887994589347692	-0.00766109077405332	-0.03877695217230939	-0.009820636267023768
0.03951856306670729	0.005486067912854798	-0.02857445146000653	-0.006949458337733698
0.01403997272111317	0.01538505561840514	-0.0362255359519487	-0.003518722117491924
-0.009113206040379804	0.007739616128508887	-0.02685866170985332	0.007557422447131012
-0.006782069930775107	-0.01881859199887135	-0.005134987857494845	0.03074472587825104
-0.00572654097970942	-0.008540169682125908	0.008963978133447188	0.02425171237910458
-0.007684838695671067	0.0209055856641782	0.02712632570768377	0.03298110907854847
-0.01554295830191496	0.03050873684833811	0.04297687785058225	0.04433976871068286
-0.005480837475256128	0.02555392468348785	0.02173373346098135	0.05690125777532447
0.008663174719636065	0.002882185619111326	0.01105313842395866	0.06753900272715106
0.006160577158332821	-0.02160709658843422	0.01289565537104006	0.07422067717877785
-0.01336187576605928	-0.0232601640853922	0.01680345117803806	0.06440343990256844
-0.01891813026689311	-0.01291913770585391	0.007469639218055733	0.05913228731506345
-0.01480806642450848	-0.00307758437244506	-0.01546753610937417	0.03476465934883376
-0.01358258306180968	0.005483583951250605	-0.01579270357954554	0.01247591737365196
-0.003045509801312314	0.006725302335347195	-0.006908754579139765	-0.02808862155951385
0.006957959401371887	0.001600877272335421	0.003913492731349677	-0.0390826696489055
-0.02710204624033987	-0.02593827217403345	0.005195818788765768	-0.03440134528088979
-0.01820841529687545	-0.009540452851916558	-0.02254773831650134	-0.02276638601637882
0.006058650292755269	-0.00750707344231061	-0.05421054132819571	-0.02570582153438244
0.004452529276181652	0.006263839251203927	-0.05028865313912696	-0.001762570269364819
0.004482365061384947	-0.01063580357565594	-0.01017960113793217	0.01821474036133983
0.005887679738658383	-0.04521025797102648	0.005084873148566607	-0.005091285952811639
0.02162600893505574	-0.06197759652394744	-0.002844384969088693	0.05305312104209765
0.02836180099114207	-0.06436889453520125	0.004447504100617211	0.1074797630310639
0.03609188532930706	-0.005339952861966546	0.007817808383012388	0.1087312243511814
0.008228881397490787	0.03117935481290652	0.02995138454766645	0.05588661387214919
0.009336314616224091	0.04687373544163851	0.04139017626592087	-0.05929367765819464
0.02634819108994727	0.1172955109104746	0.01139531627649958	-0.1339266120048678
0.01683725115427298	0.1275145164617394	0.01412580695694982	-0.1409909507015649
0.01201887109756007	0.1304888216239908	0.0005123053515334172	-0.08866825815574186
0.01064945529414189	0.1288837571554518	0.004556122647953248	-0.08348227157070852
0.00788230249610326	0.1049329797743142	-0.004118695183091173	-0.06030510441301202
-0.007135504972564338	0.03119614579491405	-0.01335637134933624	-0.03668114665418368
-0.003959711771232331	0.03541504554188588	-0.02679809156644715	-0.02166237050553226
-0.00262512010554105	0.004165237057731036	-0.06520908679003608	-0.02094183691409492
-0.004585650843934524	-0.03453959236939586	-0.04780725539870258	-0.001583911227286525
0.01229076833350934	-0.06267443854003035	-0.03765405033922949	0.01725360798182698
0.00885200934910739	-0.1008266736482426	-0.04729230168614854	0.02231386805844711
-0.003888152252182001	-0.09508930458691006	-0.007188376592488416	0.0342088741545021
0.00267499888002036	-0.0515519169206004	0.03718001810364815	0.05675568006167841
0.009670850196496909	-0.01234568613165551	0.03034509353977273	0.05224305250025135
0.01391350170706436	0.0180475974651777	0.03717681551472599	0.04173644157126014
0.01244248386601015	0.002669568209188406	0.03631850644131621	0.01555488879374016
0.01304540420622291	0.03356264396427713	0.01051035832650477	-0.02698548268427228
0.01814834930961266	0.02638515773962185	0.009431662788528696	-0.02206815246301416
0.01761477167940397	0.005170377980799759	0.02882787139368007	-0.003902315660597354
0.01390808590898802	-0.03786030125431854	0.01166561663438014	-0.01203065758086385
0.01148299710469104	-0.03221306416466967	0.0002500936175980752	-0.01455710139571601
0.008536293958523721	-0.03997290617855739	-0.00542893830574208	-0.01648600763972755
0.0004238142410831528	-0.06937701425774236	-0.003192010014731708	-0.02030699454653447
-0.01066804810909919	-0.06314306432109963	-0.0004780362812840781	-0.01337486100204775
-0.01115958490665184	-0.04694420819908355	-0.01669821421459832	-0.007259810713787262
-0.006183223325329821	-0.01469172805496752	-0.0164468228682387	-0.002973482242094752
-0.001351013092886683	0.02029517872440005	-0.03434894880610242	0.004405686988976211
-0.01978191824532155	0.004825199979574766	-0.02747655698597731	0.01397883727248317
-0.02821935800948901	0.005941816342601181	-0.01301536993738403	0.02250286593771218
-0.01809426896235605	0.03370872233513158	0.03695640907141344	0.03548422771654029
-0.007639639355126963	0.01263910149614349	0.04986255738761684	0.04478367749434815
-0.01131763020403198	-0.01541822213513821	0.02622876535075427	0.03694505977003466
-0.01332977382368071	-0.03056910073392733	0.02271348180656295	0.03105269839546919
-0.03902488124128053	-0.02551774063055752	0.03823005913201521	0.02038971764927894
-0.03139122189727733	0.0003911171546049838	0.05832336120672503	0.01868059205446853
-0.002297948197172967	0.0351959562217675	0.01501388546468255	0.0110942271435548
-0.004116136801562995	0.02224781981757663	-0.008334060567973707	-0.01047004526530632
0.009118817163110726	-0.02518501776926879	-0.01151505365063824	-0.009593153845537963
0.01611780380600941	0.002768063268326442	0.003580840404826774	-0.02422382560776809
0.006386368790086873	0.02243214337863187	-0.01856618449009476	-0.01874028304175729
-0.01463731929070377	0.02318461776319472	-0.01973408662510229	-0.01729542909384328
-0.01326330379281385	0.02213883916822234	-0.0151647717911164	-0.03622479351382698
-0.01948905420383914	0.01750182015416329	-0.0278187779484961	-0.01441806835147413
-0.02317718978283868	-0.001257104840737856	-0.02663215190744673	0.008174817366304417
-0.006650050245967419	0.006705423118872925	-0.03413890021649338	-0.008396127445795563
-0.007896544882108024	-0.05659294499606544	0.003498859526371803	0.00013219264862829
-0.004024716963639466	-0.0819573728426687	0.02390116489256656	0.0196059639692627
-0.004473842760434786	-0.04126414441826348	0.02759948862534644	0.01807970418242405
0.001676137806650669	-0.03933222066653101	0.04151890221510594	0.004404414066733757
-0.006406264829318906	-0.04079591986818054	0.05909284693135391	0.0005886410557432102
-0.00928934317993999	-0.0028123624075292	0.03692283943101374	-0.009781669946857637
-0.000207916502931553	0.02924901620679404	0.01006587685846983	-0.01561136257207645
0.009403799218390674	0.04737338433279183	-0.01560844512242088	-0.0172791729159687
0.01492768641484971	0.03694000644648541	-0.03571704679781543	-0.01835365364056511
0.00801807624795552	0.02682756247776989	-0.05856307703418228	-0.02448291971780572
0.003338938998679036	0.01242140035573295	-0.07149778501978234	-0.0179641634723517
0.004572705998168357	-0.003361932282174514	-0.03033665554920207	-0.004415482504657372
0.02037705907773498	-0.01452106846659873	-0.004542875982316728	0.02600682053368414
0.02311931266526129	-0.005613462432214432	-0.01636091262175503	0.03483254204789294
0.01770385346423273	-0.003096270764022002	0.001673810746437735	0.02101597701857495
0.01578872514295326	0.004371703159942163	-0.008215684643062863	0.01453960182158058
0.001568626201084412	0.02347975869352542	-0.008138203705878115	0.00604392159823353
0.01822187653166738	0.03169026538223171	-0.04795318626908107	-0.01613833174571801
0.02483138075919318	0.03362671905456277	-0.01519882155633429	0.01176602979186039
0.02296912719513963	0.03583549023988945	0.01368304634831398	0.01529712593785227
0.00698124198839933	0.01804001754879862	0.04241370732848317	-0.02578512031463073
0.003807019074998811	0.02318349284140687	0.02980682068523384	-0.01122433838784112
0.01537688627401463	0.04616797094224489	0.0405367282742179	0.0832870321694357
-0.002915085706445871	0.06517889250865995	0.04825986489655122	0.1020247278939584
-0.0182995036361414	0.04754001509074858	0.04511453797238001	0.1042529800513529
-0.007327347533953273	-0.01560303229811475	0.02142435646572024	0.03671431130027825
-0.001387797364962493	-0.02031008895059472	0.01419054749996929	-0.06172938520370329
-0.03731294136503893	-0.01329866901809926	0.001357651160865849	-0.1525672158256986
-0.03912513409556872	-0.04412433299106779	-0.008389040868861261	-0.1432417775217311
-0.0003625616411960447	-0.05276113397594709	-0.01917371760153621	-0.1169811375398692
0.002723558858282923	-0.04605086523813272	-0.004721449335504937	-0.0909067476870333
0.00631298171019782	-0.0221971565315485	-0.002607099861341536	-0.03723232995467596
0.01317647904199846	0.01136106565316969	-0.01195825451373249	-0.01103174430366432
0.01091116152695776	0.02481453046806509	-0.01713120333885055	0.006204924966179426
-0.02458828015654815	0.0299624497443814	-0.009982012136156234	-0.03576224451515445
-0.03707011759258445	-0.0008705316694780392	-0.001554110818733496	-0.06753795700145039
-0.04082456665045704	-0.03398125226846565	0.00569592518110744	-0.05292057564427751
-0.03045075929643188	-0.0396930397862774	0.02111492535161639	-0.02506683381956137
-0.03311921018837393	-0.002850325165170572	0.001894620539275037	0.03481992282047706
-0.0335367688274454	0.009528355232619698	-0.01978720829066174	0.02358363807484752
-0.0217062095427941	0.03759229171317608	-0.02993577573885346	0.02284890573051123
-0.01678396862368814	0.06334370117849103	-0.02414004680765839	0.04261773301393323
0.0006166214359726865	0.07747480963671749	-0.005105711746357591	0.04503332601719032
0.001303830652615516	0.05696159839937519	-0.01099465895540705	0.04630912709665627
0.009505171735991394	0.007995935143058554	-0.002210550038747392	0.0443928298609329
0.02075247711278961	-0.03661524752213235	-0.001149762170957635	0.03815231816416459
0.02770606503010721	-0.06399228199894223	-0.001975608581530047	0.01278281234689454
0.01421662145994072	-0.1446213508146348	-0.02225422710878215	-0.01431693061669721
0.01581449817012631	-0.1284016163054776	-0.03938749656354593	-0.01034974952752383
0.01548952186273813	-0.04007021982106621	-0.04457075933292613	0.007833325687923273
0.006417612102401629	-0.04780086068003786	-0.002257520480078618	0.01579640430989888
0.005703121661007335	-0.04160356918161724	-0.008321880518808762	0.01747834581120444
0.01226470375234155	-0.002627508535788633	0.01611686385566177	0.02154863837078367
0.02325038598845898	0.008392524663823016	0.02435409417436746	0.04102388156514711
0.01910477301560706	0.04282515768074153	0.02100758290314432	0.04500463152604627
0.01928973285901486	0.0554304758283798	0.03813910303521058	0.04628493645751294
0.02090851092747074	0.05080092625663319	0.01981275275841641	0.02333911674693019
0.01799809184397388	0.08070655370451843	0.01654584912094714	0.01406555324008495
-0.0004209037269581853	0.06293403885578877	0.01248684378536237	0.001541731163842325
-0.009839400251939185	0.05353753516152492	0.001973483596278728	-0.0005214017831092412
-0.01036906806360022	0.04655447360122749	-0.02441711745783493	0.002264399011211058
-0.005397209744102807	-0.005698818185306339	-0.02476072045793713	0.00439498701658738
0.003164773161087662	-0.0359845019492635	-0.01977933084019349	0.002374035812763134
0.01063601426833951	-0.05313929312786739	-0.01270720268691354	0.005181095553075511
0.02901115209769961	-0.04853440106701577	-0.02309582848760851	-0.003858744204307315
0.0006140559065749677	-0.04619523893814467	-0.03334601508747244	-0.005942587089662228
-0.01830711776395182	-0.02635650302545599	-0.02376196156580978	-0.006162950917863753
-0.01409553563280616	0.004489018386497306	0.0001115597505862889	-0.005293749281007052
-0.004523855598404135	0.0445182999913549	0.002066050188505266	0.002741977778296045
0.001749667834608091	0.04522633087774656	0.01829510309902201	0.01971613451159936
0.007964279475169148	0.03263008004088755	0.02285012807526483	0.04961770705737763
0.01229835816249134	0.030352105067344	0.03094545800011815	0.04400403344772932
0.01567901927648255	0.03745575189436903	0.01453942729171059	0.02809313701543286
0.01351931410564418	-0.01204662631168379	-0.0004881770499751618	0.003277212828921891
0.00794051202532299	-0.06045247768288842	0.01121529287779944	-0.001863236309873724
0.009436318993223801	-0.07283693684927997	0.03228508706234978	-0.00491691405631093
0.009499662703999327	-0.04323113328824513	0.02340999890300426	0.002121344404329153
0.006091110881182625	-0.05142543426593701	-0.009201046503238393	-0.002011570543223805
0.01770326430726019	-0.04820584339236921	-0.01703653900471944	0.0185408718823403
0.02055523769921373	-0.03751685727592684	0.002961545871740338	0.06306225680941586
0.02933838567909502	0.0003235321554596366	-0.003985695546691193	0.055248622675121
0.01299842259957634	-0.02247908458431389	-0.003580486722243288	0.01030576769858463
0.01133899123892144	-0.01796007188350542	-0.007010135199355718	-0.0101326969023765
-0.001492513312854498	0.004601200350036808	0.01560949708295479	-0.08843428773211168
-0.002882882840230013	0.06337320098424785	0.03271105370518842	-0.08850850788606462
0.0002670876403639436	0.09881781451077777	0.02925001151126834	-0.03093034999229181
-0.002641651161560444	0.08991608869974632	0.02499507104315915	0.009977475595396291
-0.01614392286992311	0.03187773455406317	0.03149889334567484	-0.00584832207084816
-0.001727586116156283	0.01098495823707468	0.02490247256366018	-0.03169844871391502
-0.0001616179115958038	-0.01264554403823091	0.02204948576893774	-0.03992310020413779
-0.006111705750809419	0.00409123597816461	0.01103126130396052	-0.06421081662823329
-0.001024571144941989	0.05133057099416928	0.01295193411910907	-0.05051980261903434
-0.0001808450576891683	0.08704495342188676	0.01487063370903632	-0.05371896250312135
-0.01844196696885799	0.07890651515383916	0.004675367455029647	-0.03639880037684281
-0.02477049955482277	0.09081277991421692	-0.03175119072793144	-0.01103769008001609
-0.02456111263552793	0.05499560233865349	-0.05463531907028973	-0.002610285025857817
-0.0259098346636545	0.01842442907728997	-0.05774822725877773	-0.01933795252818363
-0.0396276725337197	-0.045852728492089	-0.05806063378773017	-0.02163358252494094
-0.02810594790774001	-0.07748474431832111	-0.05820855123031211	-0.02077912903912765
-0.007089649406379773	-0.1335932521059471	-0.04770670625868153	-0.01436234532504176
0.0002837103719690544	-0.0993544032156416	-0.0247599829556664	-0.01255080466409139
-0.005542748389884895	-0.08644890583988378	0.01186791565459929	0.001047258439927931
-0.007979805700631866	-0.06615100069744563	0.02350624502036549	0.01765765976808799
1.445082009763439e-05	-0.03303258583433181	0.06444564991309366	0.03433323240857804
0.01195211059327283	0.0566189487761856	0.06080488478083908	0.03031881647188886
0.00942833236520562	0.06818038384741286	0.0373243437312258	0.02598962530944878
-0.01736552650959109	0.03352902433552415	0.0304810441228444	0.05405064024371699
-0.01636072919916044	0.05104696578219282	0.03207390798162633	0.08017511175884229
-0.03138652520519677	0.02598920002873498	0.003985257340658054	0.08481181299556667
-0.02279421668695074	0.003104985897594437	-0.005307517208106668	0.06025099729231968
-0.009168897766111564	0.001391037693345042	0.002733718871718076	0.02752419811373011
-0.02375121124266903	-0.005000961968693701	-0.002156303148463792	-0.02145010662898131
-0.01155987113047604	-0.0268582618338018	-0.02699821926602188	-0.0571137513738818
0.007218623889510186	-0.02949945098951467	-0.009663824469927628	-0.08750332474196813
0.001969749305263764	-0.0459391713217539	0.009777270083277953	-0.06865709217800239
-0.009194383481911886	-0.07420913429631716	-0.02547168279602516	-0.04303818215455855
0.01608647781176929	-0.04684499254884215	-0.04722709685097467	-0.02168918037318971
0.02394744430382191	-0.009034313863810942	-0.03549205417135838	0.01785271054895289
-0.002832247957144431	-0.01990167559298064	-0.01735760354187868	0.01221902848219596
-0.003223262880832784	-0.01379809842708466	0.003065528644189287	0.01444483864300311
0.02563591639516671	0.000937226586242301	0.01981772896731429	0.01441353185868133
0.02500066363895839	0.03043460655441402	0.02065299546955365	-0.0004605242996205943
0.01864837783953717	0.04721843880222525	0.003876549342246772	-0.002593631670699822
0.01595701029307611	0.0233291177407455	0.00152812470103296	0.01631586931904055
0.0192953454212462	0.01474099709804476	-0.001521184958354867	0.03517061643528614
0.01160967490981291	0.009078537720595886	0.007647913946273714	0.02736399169546788
0.01046176956773313	0.02238807892548163	0.005126714624287581	-0.005640996089654997
-0.01118377842046685	0.04487726649055406	-0.006697867797671986	-0.01249248512133362
-0.03400059172582628	0.03702356294090476	-0.01856724974442125	-0.05664501949931797
0.005806220744520492	0.02845455601228416	-0.02041553438375954	-0.073194891793106
0.02864811889645021	0.006707332214482237	-0.00935197733597312	-0.03419634829593707
0.007471078623327996	-0.03180637129490135	-0.001675830299405572	-0.01056770493774234
-0.04013620089653233	-0.02594255561620912	-0.009714024125393137	-0.004841249739436304
-0.04813031713772501	-0.04690424316042079	-0.04514008744013592	-0.009214333565222175
-0.01941559284864953	-0.06503029837015112	-0.03451677455544371	0.009046436564813706
-0.008294236469755779	-0.06517058130851205	-0.005991088060007493	0.03726825056110963
-0.001338542114858242	-0.06515593066187009	-0.01163554941632148	0.03487722712990707
-0.01515900723438181	-0.03764290839492993	-0.01184537133067103	0.02684139108483596
-0.006757691085917768	-0.02241641201935387	0.02042922515086437	0.0119529694455199
-0.025030341392285	-0.01680870272346728	0.06466307562277877	-0.0008365366724368324
-0.01342921171342843	-0.01437484290680797	0.07449456469847857	-0.0002905830973037013
0.006747442964524938	-0.002238389067286801	0.04120736536186854	0.001597768763081446
0.004568609244655108	0.02201431911077838	0.01643140492611058	-0.0007985441078528098
0.01971359738153546	0.04703137174947231	0.006116140188530315	0.003310957172590436
0.0271921629390765	0.08089609117000621	-0.01047986671531553	0.01569520880605543
0.01651666279053588	0.09660153552379441	-0.00170472303893279	0.01101885772017436
0.007160025944995628	0.06353502375998274	-0.01996230771690259	-0.003528714962984208
0.009854847326095827	0.04299867339050766	-0.02135960045346383	-0.01894709053954329
0.02592704114182517	0.01852897654271966	-0.006890124610813986	0.01596699657826295
0.020309284972069	-0.02071198409260933	-0.01714957101670394	0.106745119395513
0.02161406754962932	-0.0407066256545521	-0.02526494674359993	0.1225668037454062
0.0183739319583986	-0.021693571162738	-0.0271410578142852	0.08422842800322576
0.006582240787187637	-0.03675479318177059	-0.02066875401715637	0.01557675943007758
0.01067803241738872	-0.04334835949138208	-0.002937103665649957	-0.04798986333485582
0.01447824899404893	-0.06156136089802751	0.01140688742791927	-0.1069929738222023
-0.002557664607391083	-0.07329829227743287	0.02705019488438164	-0.04095100260023508
-0.01407238617926391	-0.08287183589499862	0.01248636874031399	0.006659753603211154
0.001119809973281104	-0.03550753659055425	0.01696069303385289	0.008164187840985835
0.012880006374914	-0.007658115027986702	0.02101043942846351	-0.004592307629411763
0.01396360964487726	0.02961551023384115	0.009530096654567895	-0.05194293784977159
0.01927205072567387	0.05815476489329839	-0.004808803971883237	-0.05364954688852717
0.01298011935246729	0.08561749608116545	-0.002056324914080341	-0.03351745245521676
0.02024922072218376	0.07829289913091192	0.0005145257564174984	-0.02118391700811933
0.04218934746906867	0.07276450532066588	0.001896769475111846	-0.008351346368111754
0.03268340997915619	0.05204541286881555	-0.006634655511993515	-0.00434237166479315
0.00677713959331242	0.0383130222256881	-0.02637567276647255	-0.01428576367424298
-0.01317827432466671	-0.007808525120544038	-0.02883746661407914	-0.01695230816366045
-0.009693167554730285	-0.03068179245394976	-0.01089379067497337	-0.009011476547911672
0.008368984156265167	-0.04324162380100229	-0.002175948930233924	0.001183403150432568
0.003547129026077011	0.007033224523790418	0.06235210048813405	0.02390222417368367
-0.00563808284618899	0.04468852117348536	0.03055609586940675	0.02355718840453742
-0.0119950054103693	0.06422740130781417	0.00689545459944994	0.008671408447568994
-0.03331300022683872	0.07478977545721706	0.004664855297071899	0.00829435827352713
-0.05417464430408859	0.06733978976548192	0.004632003695377625	0.009134013362161407
-0.03571722284799846	0.08295998563592061	0.01020685860240151	0.02023381283799092
-0.0007869199670062324	0.1046933705543523	0.002657038973181554	0.02141808854607465
0.001087714678601562	0.05279916836879158	0.003135285164602688	0.01480004149833944
-0.006461862220722463	-0.008455763012750249	-0.01821845274865128	0.002695507238109977
-0.01243136936268392	-0.03996996343163815	-0.04650427924419829	0.008402031220937401
-0.02291797695295102	-0.0570957057162433	-0.04927424239250908	0.01943024572974648
-0.02189694897258966	-0.0785027015447998	-0.04759598709581715	0.02383886713351819
-0.01152767113424319	-0.05522866462701062	-0.02603103966542582	0.01496542174933106
-0.01802749921735484	-0.01278174778802702	0.01533688970370199	0.005093492898378009
-0.01389511592955488	0.01981716816698986	0.05325434372497274	0.002298359307310077
-0.00144608807349956	-0.02006379493596256	0.03753111754314323	0.003982356204372267
-0.004396437833848338	-0.03586749634556134	0.02528154429620823	0.002268237511029589
0.00435617282497124	-0.03881069281878202	0.01183518915702773	0.005979558410517949
-0.002332924637640561	-0.04077591655598587	-0.002019687738232766	-0.0007488242407484578
0.005453265885213418	-0.04285915270089254	0.01797908695370675	0.01537052809343697
0.006906211133676472	-0.02496631172529899	0.01649493206874801	-0.0008938774636599151
0.01483408156303483	-0.02932002335976307	-0.003394552657878855	-0.02466171951643888
0.01111736431510222	-0.03413047439490936	-0.02459619548635766	-0.04352217104089569
0.03623906972781105	-0.03155387371141087	-0.01254572481947272	-0.03848895916734001
0.02914944547702596	0.0007642891176461383	0.0006225165358944716	-0.02410524469918965
0.01974889326932369	0.01299117570623099	-0.009470303912161984	-0.01018563896615405
0.01974156345869638	0.0219292396681012	-0.0204567771071574	-0.005287349295417307
-0.000434756786005367	0.006176247764202843	-0.03498442324275155	0.004358876367769346
0.01854558853220339	0.01489465344406637	-0.02781273198607595	-0.005782161699511916
-0.01569654757841358	-0.01480416178223883	-0.02323311041812434	0.009105328212048945
-0.04736252096164243	-0.02758037418494358	-0.02668717555993856	0.02369143039841393
-0.02275090529495104	-0.05012642380765332	-0.02718206890699626	0.01890829211094149
-0.01937572208033118	-0.07220202310062973	-0.02279921127358542	0.0006109112325465176
-0.02390689974649311	-0.06157071777864936	0.005355773303530219	0.02852917417755056
-0.01798467953280593	-0.04316371067803994	0.04854033556182644	0.07727272070858227
-0.006237269543454222	-0.03121481792919509	0.07023900147282032	0.06617138277120647
0.000908887625397935	-0.00171267833110044	0.06864035516298114	0.02056029993391126
0.008344431154567728	0.0327124026245178	0.03713314482702514	-0.02815526933624454
0.003137552322368529	0.025569141512369	0.0200731906732276	-0.07040355934462303
0.0003087314796506872	0.02188520126788853	0.007794695420935463	-0.08226804269217354
-0.002128343389220944	-0.005584219931429445	-0.006500410817671187	-0.08553790254558713
-0.001502988899433957	0.007005407744455813	-0.02134015618745111	-0.03534862147865545
0.004584957935389228	0.03814981744992238	0.0005087758801879437	-0.03293753593700151
-0.002960283009043627	0.07195257516432071	0.01391411764951789	-0.04307656553990569
0.01287960989335172	0.02259633591440818	-0.002164147620967597	-0.0301991923115825
0.0343434232064937	0.03082489201726057	-0.007238729890812833	-0.01289415190670951
0.02709367315909028	0.01461626251555258	-0.04051077050730108	0.002870650073590279
0.01120907826831674	-0.02611017710380084	-0.05526570333082636	0.008421130304921696
0.008827238639748802	-0.02105179845314405	-0.02874469028073492	0.01780934269893785
0.005689417705497611	-0.01110419448544691	-0.01205410232860008	0.06180569114646207
0.008910647050603137	-0.03256443203155517	0.004548829234309331	0.08039502159393584
0.01971718954613349	-0.03244086250196233	0.02543585769207824	0.07553417165863709
0.000856170016963491	-0.03499124690477045	0.07209326338673844	0.0530479621858496
-0.03826099907519868	-0.02052370921491669	0.0575073109760085	-0.01619723081025328
-0.03886674808901332	0.00535234163860725	0.01020572468768101	-0.06223635430906335
-0.01361943740227567	0.03098591673025304	-0.003225012855855818	-0.05857672373550407
0.001339514552943604	0.05827207648600612	-0.00761018014291467	-0.02664860232969457
0.00567508818409455	0.06131188826351285	-0.01500275797462074	-0.01819111317370192
-0.009366498006823263	0.03800940459697139	-0.01257765483104935	-0.01468672808650443
-0.02751589194091279	-0.01983506029833702	-0.01464428120117672	-0.0002390636052268896
-0.02499098598253629	0.03552884055895682	-0.004911890056518112	0.01046094935579269
-0.01339838991256074	0.06190756268441281	-0.009968564034726513	0.01715353311776681
-0.005613837484322342	0.05912813656205829	0.01594839655603806	0.0389376271161296
-0.01001911547819096	0.03524087255637995	0.02552156301291817	0.04312192681403515
-0.008394973593917303	-8.950161150244663e-05	0.03023732906084452	0.03328638885021278
-0.004310555468006644	-0.03515454568847461	0.03582459198589048	0.02928155504090886
-0.001699797082915459	-0.03793183298269066	0.03262235299940134	0.01446797438890079
0.00197538829289561	-0.04052816016171962	0.02240014115739034	-0.01692221344945449
0.01334175719692051	-0.04031740657885814	0.03728076642014083	-0.03471021370979581
0.02412563850514364	-0.05904820350789115	0.01657443603560841	-0.04805318907733634
0.02320410769778184	-0.06273232884784052	-0.0006162531440026893	-0.02119484513702528
0.01605130331534291	-0.05709963787833656	-0.005823500370513275	-0.02185570742646001
0.008129701966853545	-0.04092411572711924	-0.03410261412395608	-0.015483070993722
0.008808681249436883	-0.01281201471151277	-0.03448328152281879	-0.01815563454787874
0.02140942042306673	0.03024262909968706	-0.04088630361954172	-0.01597204935443089
0.03094345665381311	0.06567714628788737	-0.04241060564829241	0.04981110937011137
0.01114011467789767	0.06550035620672405	-0.05301547976515403	0.09167893168134374
0.01283731354798304	0.05460747188618536	-0.04998163582067801	0.07663402982286119
0.004320043385204247	0.0441415868018892	-0.04444700353921534	0.03395296822430625
0.006529207220329479	0.03112179946516236	-0.04142655844984378	-0.0526863168958212
-0.01157862330299806	0.01630899580392936	-0.02808516973176471	-0.0982751833195547
-0.01115600989687778	-0.000761042439837526	-0.01632683454435627	-0.09043698117840464
-0.01327688095336429	-0.01871167548265852	0.00609941204004799	-0.02950055658284195
0.006951632498716226	0.006649238015511002	0.004922649866138337	0.02526980570950172
-0.008686496050139525	0.003418085252642056	0.02054628800103554	0.04242783414537524
-0.01542421306922701	-0.01206506697852231	0.02152390172647469	0.02729289000346917
0.002802784533925088	-0.0184124901492119	0.005703709001727481	3.853329672780736e-05
0.009661661711061554	-0.02747530061640153	0.01331784179091213	-0.01405426433004329
0.004150777509281642	-0.04881477907142066	0.01851062696108463	-0.02301140386844851
0.01609144148874893	-0.02787081528848207	-0.003186200755765671	0.003765143979707427
0.02581873946679379	0.01655339593058787	-0.01693534832288048	0.002991475939617599
0.01200619021047139	0.02885296515456253	-0.0185228817655127	-0.02138618291684796
0.001206875280946096	0.0231508797925948	-0.005542152501300334	-0.04311780753425098
-0.01076328189849928	0.03818455250749712	-0.006619038357375403	-0.01339059443940563
-0.01154050657913211	0.03689612367178789	-0.02227757238500917	0.04419541956050136
0.0039686214906064	0.04469083166948988	-0.01688185619710333	0.04469649571135124
-0.00438166925881838	0.04189368584165598	0.006519097495730665	0.02701880896456457
-0.01442829332826319	0.02296283440743238	0.01205040994470127	0.02604104887304033
-0.02965038453112191	-0.0007865690020738903	0.01830616176793138	0.02051814098934676
-0.03405279562008625	-0.01105004265603179	0.008639358909316195	-4.351127623802582e-05
-0.01590971566539883	-0.0437894417496273	0.01149422718995429	0.01717909460667729
-0.01810659177523707	-0.05938662163932993	0.01818474065020011	0.05362646373901135
-0.03262012714282523	-0.06678714252461013	0.03658301709681974	0.04028266855027834
-0.01921130742960834	-0.02828572960096939	0.04145001997915084	0.01130850156498132
-0.008237231129015849	0.0123049472172719	0.04179493406714958	-0.002898776564943746
-0.002579578199831472	0.03176502937013551	0.03224542924165993	-0.02556356722827737
-0.00190448247376952	0.02993421192545311	0.01840072136464429	-0.05145247324624679
0.006316941470350488	-0.002844688682154671	-0.0002011782931322075	-0.05392842754190174
0.02495961016555277	-0.00935085088176987	-0.01457371036275225	-0.04046788888700203
0.02917351646099728	0.003425685979676067	-0.02825671820238568	-0.02040799701112588
0.0312220052438898	0.001924698830698143	-0.03359846303616238	-0.0254155615918503
0.02078572133027805	-0.06945186440254632	-0.02387331485607262	-0.01919256490268628
0.00684041133778579	-0.08613960239643313	-0.02329452876867524	-0.005803134905053142
0.02046485794556093	-0.05020739427092023	-0.03173113423347628	0.001148579807079392
0.009790289761307714	-0.01380739791895266	-0.009538711252082095	0.01177361430535813
-0.02775321069189015	0.01795336792213017	0.01621774414456504	0.02538578765222227
-0.009953396677979013	0.04395196112268037	0.02184685687227006	0.02842117197587302
0.01213239794406016	0.05723104030632791	0.02953740343342879	0.02965534190987172
0.01010164198376478	0.05495450734991136	0.02175733525973938	0.01917528684474387
-0.01323187022053337	0.03507575317243933	0.02567380519853165	0.01483265276950161
-0.01154109984844839	0.04222389160102063	0.01678932103053272	0.01113533732810229
-0.008831669642421236	0.02157261086963191	0.003884276750387415	0.01392052360293769
-0.001846319358162428	0.00209315930858393	-0.03958412802404687	-0.001281374636054391
0.008217820967148851	0.04085213099914325	-0.05431371071310795	-0.007572479666593116
0.00795696617478586	0.03864671990097331	-0.04604397602670557	-0.01852824615080241
0.0006413720326396017	0.001937925429145362	-0.0466494408988356	-0.01793206515154086
0.01097503834408404	-0.0283567334278256	-0.05349008551038553	-0.01986267422558198
0.03134374382113386	-0.04319147996813225	-0.01911263501708568	-0.0104644339014744
0.03663387289476612	-0.04981016476630844	0.03304223375556391	-0.0009758565043700498
0.03588272339266742	-0.02173745680411474	0.02054640697267357	-0.003477095007534736
0.03684828120514248	-0.02935351882625152	0.0245059878971052	0.0005363091251629049
0.005587773597787463	-0.04931994040096312	0.01341090478575243	0.005288493296787508
-0.007658073352901629	-0.06151322036095539	0.02590786064247066	0.005225835989571354
-0.04013825409035521	-0.04691539857095497	0.08172958748278406	0.02437987802935768
-0.08705761511462939	-0.02931240322778474	0.0818160100158932	0.03656353907479339
-0.06334075669011577	-0.02307759577316031	0.04849886722114118	0.0298682661945828
-0.02920267648690026	0.001644187139247772	0.0437111198730822	0.0294412191896296
-0.01729527221381911	0.01634466342790466	0.02385086187402357	0.0122255220094026
-0.02966138244646004	0.01895736058300956	-0.0006197073160499889	0.002387025799278074
-0.03516493793697681	0.04887556602632057	0.01430327199113	0.01521497193784787
-0.03008212354231904	0.07758428847152136	-0.001383475853917555	0.02677855954202885
-0.02003783563128553	0.03705259258378204	-0.01430608970836342	0.005566879247681096
-0.009551592452048556	-0.005186798667269624	-0.003586985537426395	-0.03171844704304712
0.002331421560925264	0.003194251287186204	-0.01174572527843776	-0.02743946203326925
0.009437192598222729	-0.01847675295031935	-0.000419148726646056	-0.03725305066135785
0.009451331502888885	-0.02856216573111907	-0.01496225077859195	-0.04168029671189813
0.01764198467925811	-0.01381021663215809	-0.04511456794860068	-0.04480612141484829
0.019060133864315	-0.04163613199695589	-0.04762568793090165	-0.03764759629509613
0.03221799103564835	-0.008673643233275175	-0.04178719934317711	-0.02297018997270666
0.03453099761832017	0.009650165295826563	-0.04120764090788544	-0.002751279455884798
0.0265059476534274	-0.02077404130265546	-0.02458946307824204	0.0570832437576255
0.0288341206932066	-0.02466035780337397	-0.002374211383149277	0.07851590084680186
0.02670155472345779	-0.02722094069902097	0.02222244554688753	0.06535359062927157
0.01641590319890512	-0.02442765706164999	0.03931127811950547	0.02888729795875296
0.01279810074176444	-0.006864160846277839	0.02966631169788866	-0.02986063624873858
0.02875181967283602	0.05977579472007792	0.03497895217691008	-0.0400234311853075
0.02624616167821835	0.08407218940299109	0.009691247333542281	-0.02717098232568965
0.0232589146553636	0.0741952510829451	-0.01737884520819361	-0.03301121846105744
0.0163992738927306	0.02471329973720839	-0.03765093239380396	-0.05006033289847167
0.01487071759310127	0.00205904586077164	-0.02792351825269993	-0.02443744087573688
-0.004505164416286631	-0.01367894928444962	0.005590503399692567	0.00341751705236519
-0.02984857720033301	-0.03067334782428292	-0.001428700049020501	0.008248464651363549
-0.02346288227651689	-0.03620869328896065	-0.02969977562440936	-0.00103401903556286
-0.002424776740971115	-0.04305831119399129	-0.03451349988309014	-0.01032380968406214
0.001250075583866184	-0.02126157710133229	-0.007554442165872168	-0.03983906577225362
-0.01121507866609279	0.002975602962905259	-0.0001087277020068	-0.04782904673940501
-0.004981829366346171	0.04477115603415768	-0.003904238277852076	-0.02593433020439813
-0.007956473586002391	0.047258452083536	0.01070965643267174	0.003326241439549753
0.001110032891095829	0.03832739510174067	0.02821751441011495	0.02080990588767875
0.0155132420552101	0.03765710110475356	0.03720218892300371	0.01813087357247642
-0.002006674542294084	0.01063325328069029	0.02123066087920484	0.01831363993263636
-0.0276019837676786	-0.02057425923078104	0.001475429977697182	0.002617215494388776
-0.01248679527659736	-0.01079762812837063	-0.008349243543206679	-0.0003367379705872906
-0.007235878757044481	-0.01398852444606736	-0.00896854147927584	0.01681779687885311
0.001836823818226523	-0.01336042648922345	-0.01486116882265854	0.06643358139672881
0.00340331032278266	0.03749784506722785	-0.04319620162205141	0.0816758758409301
-0.004294196333477169	0.07055289914713761	-0.0438678678683984	0.07667906926812319
-0.002715374051988382	0.05525943180961999	-0.03499846109410786	0.03908250492717728
-0.009404612893644139	0.02874485865698266	-0.01712521050686156	0.0007275626015629267
0.0009220451307319331	0.02141026391245304	-0.01273818318730803	-0.04838199711044251
0.01058888247934732	-0.00485673841732164	-0.03092144035860058	-0.06834829973671189
0.009883694108252773	-0.05466326939976919	-0.005383633974021884	-0.0690432586461973
0.001908396088726895	-0.07953452863921295	0.007839043377916358	-0.09029120709924053
-0.001925131185126855	-0.0688546535887813	0.004554683727646243	-0.06806946893749889
0.004459667138125204	-0.04668700638900138	0.005477621442173027	-0.02749660262620478
-0.002391322697195179	-0.06225814112485198	0.02084645153948858	0.0103931358480884
0.003769046693806801	-0.04214707933251556	0.03301076738987191	0.004019245266923183
0.006575046685893817	-0.01339572412117196	0.04709147281427375	0.0179099535279191
-0.0009795141290812033	-0.0007063408427098038	0.01008025503599834	0.04487276058067815
-0.002364329486543954	-0.004346906847184804	0.004238580096213527	0.04735901156562651
0.005876747404195828	-0.01429822648200183	0.01041682198999205	0.02207205990319211
0.002138298244044392	0.00647593327746928	0.01647176577370376	-0.001318556149367198
0.005322409332251784	0.01125008364620358	0.01574945326391519	-0.021378453183074
-0.003274161157591718	0.0414303123772088	0.002007487642760817	-0.05398777391546024
-0.03471266559779816	0.05109601928892689	-0.01750113627236522	0.003540477657126916
-0.02836262212305286	0.04711412288514667	-0.02324470297580972	0.04127653985201678
-0.0237119103689972	0.02938605763599742	-0.01738909575048469	0.03129899763851963
-0.0203277898070588	0.03425394147869361	-0.03248124219079952	0.02894061532319949
-0.01151717706915563	0.02189178736069675	-0.03439449152326644	-0.03655932741451282
-0.0205585769794828	0.004466946765546948	-0.009580522950170148	-0.06017583953447532
-0.01012013133972702	-0.009657425100940996	0.01364564583898679	-0.04660717650513357
-0.009083634489035449	-0.02356138441578676	0.04301688058234355	0.01463184949779407
0.01087125909117598	-0.01425433649848792	0.04125667542403176	0.03041440493308567
0.0131125629403399	0.00416980804012357	0.0487650909997057	0.03091210227457979
0.013812186171191	0.01198382251586729	0.04073722401315871	0.03039009164096445
0.01184552632931006	0.03098906692359916	0.01912892985607327	0.01902660414329432
0.0151569398732782	0.06345451208559305	0.007170287049613823	0.008695430115422292
0.01443786574983257	0.01664379648937105	0.006868639261772998	0.0144090427591695
0.01667398328645246	-0.01667619361061228	0.001172718436398322	0.002587148172250522
0.01060963917013061	-0.03556046975621747	-0.0124805486089129	-0.00336481166250622
0.006855539361147272	-0.05260192844983486	-0.006141368238036143	-0.003904757475570203
-0.001789481336342877	-0.03464347560644664	0.02789285105587975	-0.01495311309712459
-0.01195410042625857	-0.02957476516731969	0.001456408882299435	0.007323410565890723
-0.01075169431796857	-0.009360100414438171	0.0007059696047206795	0.02678788353723009
-0.00420708194092941	-0.008007356646148843	0.002489592291885354	0.02321338948340566
-0.01300332965268815	-0.01011249970455863	0.00262552338390236	0.004066367965597382
-0.01681515140775299	-0.02308191201429743	-0.04579508125996268	-0.007302017362899423
-0.01636172344916619	-0.02001466829385482	-0.05931940938492641	0.01040183841686269
-0.006221933022597489	-0.01555676455115619	-0.02815588600325237	0.02886308160995836
0.006040950956317796	-0.002748186879118872	-0.01813228743935115	0.04369051822513993
0.01455507471699503	-0.004998965828199192	-0.0007736245767611411	0.04653108381405702
0.01683430553349435	0.004537308869848477	0.0169161869588366	0.03252433423139223
0.009952442668552551	0.02609237321811317	0.09136692691323889	-0.00995636025525152
0.001150759535388221	0.01885922393494733	0.06485446605136663	-0.04369627419523216
0.0002965235981310516	0.02227174782857785	0.02244857294949056	-0.03544889804980836
0.00366044607154509	0.0066612132118241	-0.001436705878137848	-0.01729973507032081
0.0006304838434409971	-0.006245344655053263	-0.01859492678676931	-0.005212987321244753
-0.001319035698743714	-0.01607121554445764	-0.02798414677724922	-0.007667755766372869
0.003533155926916753	-0.01784254920207876	-0.03269961436403432	-0.01219382459034438
0.001543653039403625	-0.03598020550290295	-0.0339602057619745	-0.02838886887324943
0.001893133563824832	-0.02784274692755043	-0.04114014055274188	-0.01861454513514129
-0.001560015152720363	-0.01864815554460547	-0.04746871393251498	-0.0197332269043853
0.003978010092798035	0.003295181533131278	-0.04764299769701855	-0.02022274009054464
0.007073375431838411	0.01581453751253214	-0.004924647579258837	-0.009353914893975059
0.0007160767247306844	-0.00146261830958999	0.04773228623497151	0.01115611580483675
0.007896708736701379	0.00220285822266928	0.04212530227676867	0.02286568400041983
0.002201218585177905	-0.03252185586261389	0.05320341919006866	0.04352574802570728
0.0003896541681928277	-0.01328544923273262	0.03054231623513187	0.05205268954123748
0.006545687183398311	0.01902563590156627	0.02397584836189348	0.0366608718242982
0.00687054479164219	0.04629036652572358	0.02339041990248118	-0.002822931792750764
0.009633905439930571	0.008169623326006653	0.03004057097753818	-0.01362518981852303
0.004858320685491498	-0.0142323910750881	0.01072251355448439	-0.008911657056028505
0.02100389818601216	0.002566939255845246	-0.01607181271394567	-0.0005629284894587557
0.01884233683089152	0.01227192094061455	-0.01814981588003741	-0.007328782180257462
0.003341298226447323	0.005444282951377252	-0.0195781063005663	-0.007056284500506274
0.02429727828480954	0.001399021998508263	-0.023339823529581	-0.0152307521374069
0.02868155371714043	0.008335345319969437	-0.02965684575072604	-0.01625565652610252
0.03772894164991415	0.05328075890000383	-0.02846172105826457	-0.0203202515402671
0.0317447897208926	0.06196912716096006	-0.0364947431316669	-0.02537367036888432
0.003636936500373306	0.0536051235824083	-0.04193257617493003	-0.02684160056027956
-0.06321498608909736	0.03921318892041852	-0.04487614245168364	-0.01970831434597736
-0.06964191720318402	0.0263467776880228	-0.02578041312856232	-0.006911094541623641
-0.05101705737537725	0.004720297900487259	-0.001224146573553107	0.01119599028086938
-0.02659462487531308	0.02389793708171796	0.02491608529909984	0.02368056120945702
-0.05079216695260145	-0.01528391270681548	0.03872253574030864	0.02976727409489457
-0.01097636669875563	0.006031126702237878	0.03566239450058475	0.02227911872382106
0.0101813809296449	0.04066662981138826	0.0171838140942614	0.02021837545553933
0.01363515365764262	0.04435578394718367	0.004966996340678193	0.005999418942570246
-0.0002468620468541586	-0.004281889959534851	0.01049931697962763	-0.001228730178481681
-0.01793161980673603	-0.01672324599736642	-0.007765316646368479	-0.009128485881792429
0.01414619533473735	0.003670307846321198	-0.02394931017937491	0.01657700560149273
0.01643299860882052	-0.02220625107419833	-0.005055170457807788	0.03241402171769016
0.00819806677702631	-0.0323033653880817	-0.002829832680274159	0.0135608483132659
-0.02320304166001148	-0.06888983152956693	-0.007852008360224762	0.00151024783288462
-0.03606656248386528	-0.05236354637015496	-0.01698766336893949	-0.0558203694498722
0.004533019731602863	0.001972002586791634	-0.02957152375723399	-0.07003790383344527
0.014997608955648	0.01203077840129409	-0.0332720289275187	-0.03675349618691938
-0.002788543257967721	-0.002458943858048191	-0.04317009944179491	-0.01553377963779003
-0.01994189081063546	-0.01815103741650705	-0.02994209028208644	0.0009370786590546815
-0.01498335761039935	-0.05513436829564978	0.004057066385618379	0.002651594436161224
-0.01623138313002309	-0.09806989876587364	0.02737284057646627	-0.04250610192348458
-0.008035262498459038	-0.0906781294749605	0.03637012393555056	-0.02200301816987212
0.00243950372191437	-0.07023819335017081	0.01744758240685131	-0.01595173328980845
0.01036407669246154	-0.02649194225396729	0.031742201660105	0.004355857946831154
0.006445503930696005	0.007398472295659047	0.00790738276247669	0.02747337097418293
0.001214829503497098	0.02935451846721892	-0.01571279553003135	-0.005782277140948934
0.01677253900616538	0.08773613384485	0.007231825746449556	-0.01490920229802978
0.02443753480036457	0.07862104743706914	0.009091121893915144	-0.01159038328618052
0.01207508043422967	0.02146662004974209	-0.004763976016655489	-0.008125645687375053
0.004363761578150818	-0.01032552712646563	0.01983581118296611	0.008707200451108087
0.01631489696493752	-0.02078623974692653	0.01721473057628752	0.01275934378793298
0.00166742542580318	-0.02501935510414082	0.01573685756150121	0.02714134842474273
0.01003959414177626	-0.04340834117039979	0.01191465945283838	0.0126985760063119
0.00493386730115359	-0.06132842038689174	0.005851115051351088	-0.001731275752509584
0.01345627639086535	-0.06099328670300411	0.027823076522136	0.002012631280285481
0.01190606202127658	-0.008382026137818377	0.04306120340354939	0.0348098934162219
0.01494252463898815	0.01821309509890738	0.03899089745156017	0.05531642054574493
0.01063625914673022	0.05461911165444958	0.03157622182489851	0.05059835877554354
0.005061202889130317	0.0797306241273277	0.02566069604127355	0.02582123908081968
0.01262420863696211	0.09640574300090921	-0.02868587620334524	-0.007359374756816584
0.008347443532528646	0.0908571466026929	-0.03628518176534632	-0.02277587148762049
-0.01592482423783929	0.06265343158023579	-0.02470798045810835	-0.02315548114215275
-0.0210881157107759	0.005473498980119054	-0.02379803615662281	0.02388926633112968
-0.01254877136384168	-0.02517977501254653	-0.01570912835804865	0.04261061001117322
0.002557794115794103	-0.03531710620097511	-0.01779111933607918	0.04853786858305306
6.821237466106541e-05	-0.01337371694412391	-0.03277225835325467	-0.01420040043460077
0.002517879313228732	-0.008104344614735633	-0.02510447106958756	-0.06023364025243435
0.005055376343097336	-0.0004392166426020778	-0.01525057992657147	-0.06456522854214419
0.01491665648425135	0.0315251964565757	0.0007376275818592388	-0.06394162971835006
0.0189109312400646	0.06893900513399358	0.05574593791320973	-0.05101210285150266
-0.000199815783928316	0.04139345196395418	0.0761715002411656	-0.03547722338864764
-0.01268357822994378	-0.002217893360007279	0.05237368765472264	-0.01363054127948386
0.006645833537097579	-0.0187134832505673	0.01801211666757578	-0.01163944147143323
-0.002516737987098655	-0.0686747459623767	0.008092278921707038	-0.01169927028971428
0.002320488878241664	-0.105602385163886	0.00501968606693554	0.01331641832785565
0.0008598173711440575	-0.1174476478344507	0.0150056765594109	0.02083774334823786
0.006939803824857146	-0.1068193887367901	-0.015015698678428	0.008773960027916033
0.003322959149240218	-0.08814187008290918	-0.06942124768240737	-0.005595685769864227
0.0001585521190681365	-0.04399793431836029	-0.09062459929757877	0.003687532868245662
-0.001104401272951592	-0.002538807980180745	-0.04844625173385234	-0.01311518377953146
0.01583099775092046	0.1090794594094753	-0.03719991804577294	-0.01123068125477834
0.002049716924894978	0.1178555169267295	-0.04240041565278691	-3.757954876512144e-05
0.00183040383336767	0.06694982934499957	-0.03566043970445895	0.001542101954679482
-0.007269205492526965	0.03577140731893585	0.04964718450314606	0.05849449753341594
-0.001018633649358124	0.02564148795878636	0.07156231500191589	0.06490508463433997
-0.003118710116085309	0.03436896382657353	0.06311712320010325	0.07184701705866252
-0.003928942360568114	0.03487172280058667	0.04143220181364684	0.05045520646661623
-0.003838311719667294	-0.004803375294180889	0.02998946991317025	0.003347257768224811
0.001705111734085229	-0.01872687408305	0.06597994161176879	-0.01652011452255461
0.006839158582996992	0.0255571853311139	0.04002783576892412	-0.03330957697289497
-0.0008160341804226208	-0.000288498325146156	-0.004351439131676385	-0.02301402024345633
0.004915912529547959	0.01306464721428614	-0.0182427152200146	-0.02069050751828838
0.02167435333999257	0.02214878446569059	-0.04204386930495239	-0.009580791534868181
0.009611657810638219	0.01045526112824147	-0.0452089603736488	-0.0124826493867332
0.01044733865801168	0.03225600878372168	-0.05220379924823119	-0.01230695256522919
0.0007522295202156536	0.02551606331514332	-0.05445464138040526	0.001664875744763504
-0.01037879258531424	0.02607005847622456	-0.004444560626218745	0.00898698113278373
-0.0133411771956251	0.0176803909024124	0.0347112816961741	0.01782191760999324
-0.01199686010569471	-0.004846745160074685	0.03830239745088865	0.02095421579075458
-0.02831905190495978	-0.02225188099539277	0.01670342988156769	0.002746096701332689
-0.02266254570765086	-0.01760082992244609	0.01784980025970621	0.005851816516924718
-0.0238961875311024	-0.01367885575430939	0.02563474797906438	0.02086256660454997
-0.009892699948467814	0.007420980658112772	0.01523164320183068	0.02303411477187536
-0.002002875112158792	0.003855168240800268	0.01653593856240412	0.02392873922270318
-0.005393643789225634	0.02572728794182566	0.0164391219940818	0.02550648872813931
-0.01560714075490784	0.01936182587721011	0.01564511166888213	0.02562557550604745
-0.01925252382502365	-0.003060816337959879	-0.02072938288767514	0.01263173122589399
0.003093936633506253	-0.005217356622070171	-0.04671123878487176	-0.001244288305566879
0.005007183104070129	-0.02063081685092968	-0.03874188820369206	-0.003800804255671858
0.01790568730141087	-0.01244741081988873	-0.04672912769796471	-0.003401042700368504
0.01875449283567072	-0.01233920481933566	-0.03924318462930759	-0.01370038871198337
-0.01354696353646989	-0.03463716081140147	-0.0334460703684018	-0.01714915863238569
-0.05616419579446781	-0.03548622809899657	-0.03617758150076476	-0.01686294660271929
-0.03994693301548948	-0.02845487526750029	-0.01671467853337342	-0.01744335561561804
-0.02169138497583428	-0.04308884771797937	-0.01466605587204015	-0.01424180249511028
-0.03347102829296014	-0.05787294380483132	-0.02535941623379132	0.009654243263850192
-0.02414857407454334	-0.02103972519871531	-0.02173128297995389	0.02682184603313681
0.0001639545426243851	-0.02116363621010437	-0.003954667553477188	0.04300998555129167
0.003567325572676242	-0.03451678708105239	-0.00976282150542972	0.04894026970600625
0.01972206499940914	-0.03031673824977339	-0.003285864686152277	0.0181123433813009
0.03500016655105371	-0.02255739270411898	0.01200933341655845	0.01016749754397145
0.02994953663898328	-0.01065201333006819	0.01299962804744956	-0.0285020969121677
0.02450811644586956	0.006724530653147005	0.02560250793037405	-0.04057705815643981
0.01829891476352942	-0.0182867486408286	0.01646542335693095	-0.04657452014271031
0.0231760880809104	-0.04016993707160191	0.007569163713780049	-0.04601122210515508
0.0100658477872554	-0.02406111511427231	-0.007422341018435511	-0.02667924597823896
-0.01360478231613153	0.001527801475086589	-0.02150372795541527	-0.01812963050957422
-0.01405231715311195	0.005125934159186522	-0.01653335262080032	-0.004405200650680909
-0.01471844915216651	-0.005710600290749573	-0.0002506865712890126	-0.007021661035524643
-0.02917917633588785	-4.698180225354558e-05	-0.003825322402204518	-0.01143510312149107
-0.004360130566036498	0.0137974621364447	0.01018184424014159	-0.01057826923529487
-0.001243319888451942	0.004937712233267478	0.005379785956546946	-0.02791757719979773
0.01841599023140508	0.01652843521811039	-0.007531646907147157	-0.03798580398640722
0.009630908289736626	0.0210124280119569	-0.004581429087702871	-0.02167953304363966
-0.007811670839458662	0.01554035135638841	-0.01785770555042021	-0.01223373788534892
-0.02137089359976132	-0.005107449200866763	0.01624097576375867	-0.0007413482094659018
0.002863878409649417	-0.03522398081726988	0.03904982580609719	0.003777967591004279
0.01055659102061918	-0.02130081508442351	0.04500109561576039	0.01119098801239032
0.008866714578499654	-0.02411806749350116	0.02931859977701907	0.01196369122311038
0.01251603687918612	0.007823565072065199	0.02862832606824826	0.01266966535895231
-0.003031521973235361	0.02405548242684218	0.03139992956564856	-3.342172778759961e-05
-0.000217371111448195	0.02974142093140417	0.0323669983058442	0.0002143004944270751
0.002753564649499008	0.06548503200757316	0.03200686273772695	0.003339503440598015
0.005434979299013373	0.09965105811044873	0.001958803864642254	0.0002672628397793828
0.0125709846014892	0.0666909397686023	-0.009145264165089822	-0.00125176167458015
0.009285437727827714	0.07006622608429898	-0.008585125015999598	0.004921593004634702
0.01961754170316703	0.09311706334443337	-0.007288876733340884	-0.01068796786988421
0.01295357205394962	0.06684491303125684	0.01280667999112397	0.006304902704301454
0.01378516944477135	0.04682904224567223	-0.006031836039897049	-0.003911036011567603
0.01683960450306856	0.02850988005878554	-0.007162543474740213	-0.004535607712017361
0.01834169961889779	0.02421958859884463	-0.01561858010329564	0.002791031997701723
0.02300248558036177	0.01938175548492936	-0.03404887369849361	0.03225445098089347
0.02405690551633248	-0.03166566549350395	-0.02509020688055546	0.04053843081992802
0.008727363062822289	-0.03632585415580841	-0.01391790550054154	0.04525513358209095
-0.006333424074255393	-0.04853881777316331	-0.00793376291116268	0.0370546239889521
0.002150627930554082	-0.02787809307626343	0.02671678022735774	-0.002101518494666633
0.01533786945781891	-0.003965713480979091	0.03099277957594356	-0.01904681276281444
0.007299525584189071	-0.0080682491033286	0.04103164291536839	-0.03665818140852876
0.002317524450693655	-0.00636896380024858	0.02638202519923202	-0.04568227216963337
0.003714046448408092	-0.0169130624573914	0.01720589259804433	-0.009938610347324281
-0.004389140607774157	-0.02515229407697128	0.012923328904641	0.01413688441018658
-0.002825726558497931	-0.04628249887593607	0.01361327437738599	0.03423896362673858
0.009651604193144514	-0.0548061823940512	0.01604697039460957	0.03329527746608346
0.02748955663235532	-0.04570488737564959	0.01280352346671202	0.02370929490438923
0.03733655799977024	-0.0195529016364052	0.000324012757571081	0.01343138902524524
0.00742718325263625	-0.0275986913854494	-0.02860028871876135	-0.04514567025221774
0.004793767690105174	-0.0001390112442425599	-0.02923698017622138	-0.0578940816774891
0.005311830457245691	-0.001700176250928842	-0.02684943086450206	-0.05299671415064622
0.005536247225457449	0.007483957450247293	-0.03102047394927962	-0.0296893417839041
0.005332212966141456	0.05166236552289141	-0.0209545145285543	-0.02918261536957345
-0.03309828930915266	0.06956705849734449	-0.01595506022449948	-0.01352497590598923
-0.05893655915467592	0.02762693639573046	-0.0006306911206571972	0.00230332978507455
-0.05221435215339936	-0.003381188075317764	-0.006011461651109818	0.003565045396560745
-0.03421890474409511	-0.0174697736818888	0.03127210837182952	0.02064630041843505
-0.01530845359358716	-0.03589682376966142	0.0387987670152345	0.05425116091657547
-0.01815173780067547	-0.07885898785287197	0.02349127938667902	0.04683875397497778
-0.008573458072489132	-0.06805775954656508	0.02177420343560619	0.03854187381687763
0.004138503937432943	-0.04867483367101007	0.005977660596752471	0.04475339700876629
0.0007590183079436446	-0.05120713332805648	0.01198924725337547	0.0954822961970971
0.00164672998755498	-0.03866361729182644	0.0008968197912013326	0.08202052330583458
0.00940500952051156	-0.02316211048057737	-0.007951787339308333	0.0356421790284756
5.129437694023222e-05	-0.01733806400687169	-0.03062329066551799	-0.08681263553873934
-0.008458812927378028	0.01224250344457515	-0.0004155079592283191	-0.1564350122059155
-0.01168064231694807	0.03259189899641902	0.01816988561643152	-0.1394787890746341
-0.02211981213961257	0.04616927308334665	-0.01442932360786786	-0.06057740741472942
-0.01895914408588656	0.04562300288280342	-0.03215799740986432	-0.01325559806116704
-0.01053021139618608	0.02948583489164534	-0.0183321754199267	0.006717592841828038
-0.0004349727549846088	0.01107109082060032	-0.02694722530767317	0.02179388442977583
0.006054928474514352	0.01151338516582047	-0.02726778014679948	0.03146610587480104
0.01138654015627154	0.01408718666346309	-0.01900952595260548	0.02991452723091619
0.0005468764287407169	0.00118757244653532	0.005007311827217704	0.0282198856991315
0.005266604055343309	-0.00920673140236135	0.02529857474521298	0.02814646882878876
0.008878692189796832	0.0017885571445546	0.03187655355614533	0.02354152783519866
0.007448655254106483	0.002756103325005404	-0.001195615047245081	0.0222938219552688
-0.00291934276007692	-0.006263981818253134	-0.02645908136290516	-0.01558975793243349
-0.02878442865884603	-0.007026833676072962	-0.02327107094741999	-0.0278845489432003
-0.01811816868941543	-0.02148747001193457	-0.02157705161041464	-0.01748802800959945
0.009059365155835428	-0.01245245393436251	-0.001723779885628615	-0.007413688392595566
0.007810816779931713	-0.02221345736282822	-0.002993567529466742	-0.001058865174393653
-0.01365904521518797	-0.03736599570103907	-0.008579067949050116	0.01101849714401979
-0.01652066539106243	-0.02140224031568274	-0.003588699287543225	0.03002789331977226
0.009395035635578133	0.01172203807952251	-0.00568572938330389	0.02164382472297948
0.01171830648381427	0.01711248552844712	0.0006523944211884579	0.008489903194739785
-0.006332142883330149	0.05365331994360674	0.001681421877826375	0.01207965086008284
-0.001237693058186531	0.1013424311607504	0.01275205561929726	0.00222189800163371
-0.001992147957186036	0.08979152002309321	0.01906743158901374	0.01644711501911164
-0.003552597908558731	0.07126081357350671	0.03627004246447509	0.02603785862380319
-0.001233746409375142	0.05113722004178246	0.02511179997939057	0.005601833047696699
0.01844775542680622	0.04942724697910385	0.01736521130308588	0.0192104967236477
0.01853869488478451	0.02256907488207753	-0.03802160069863807	0.008715263298694145
0.0211396893985731	-0.003736481406947707	-0.06186402473182754	-0.02179379550867763
0.01804096811925091	-0.003213004517567555	-0.06396530425272662	-0.0200703298918972
-0.01086339527639376	-0.01067619316149377	-0.0474375606073219	-0.01020832841474799
-0.00542641557328494	-0.0229716736463735	-0.04750353308935796	-0.01028028165424023
0.007227745760689522	-0.02989634825661515	-0.03794692420236959	-0.009003734402572015
-0.008217500061068118	-0.05196758351928744	0.02500936417847823	0.001028113404617127
-0.004024820204304815	-0.05297040655788868	0.08603167766649329	0.05731631357856464
-0.007488566571695375	-0.02598201111963146	0.06033249654021717	0.04484631824923359
-0.008234004029488994	-0.005814720848616313	0.03130466789826916	0.002343294071135466
0.00895802676465105	0.002676837580345945	0.03086610125569118	-0.02508186096983683
0.01338456068933754	-0.0206689640409961	0.02291045652642862	-0.02871770674002609
0.005145646225921146	-0.01312775045201493	0.01412524477952864	-0.01334745707184458
0.005819996029444687	0.00694941449635548	0.03359613610388482	-0.008968164985208154
-0.03675504052805012	0.003276057891243076	0.01908491114435443	0.001385876972149455
-0.04221788924873912	-0.0002351401282433485	0.01323996444445245	-0.002109116072110517
-0.0158136095815226	0.005547246495088726	-0.001558854453712202	0.0003863346804460138
0.0003498228382049929	-0.009071125279776836	-0.01582921096768171	-0.009163614885679959
0.006600935766305006	-0.0292072508012029	-0.03347892500766431	-0.01353194958019618
0.009648901700942097	-0.03998584962312094	-0.0389389365937195	-0.0104936477134929
-0.007034865926077654	-0.0340938986895994	-0.0381979202195297	-0.009672371162153229
0.01272914813241169	-0.02518772121893112	-0.02575067091089265	-0.01841276797191936
0.02753304410563783	-0.01511930395187918	-0.01668683928406162	-0.0232736529206397
0.0264202653276403	-0.001204056858140752	-0.02341645923046513	-0.02044450637091814
0.01480197943444289	-0.001650257618376994	0.02070986908836777	0.01360648097449044
0.0042593516122786	-0.003190819826611987	0.03133756963503272	0.03991415226558991
0.009499702939745173	-0.02420304879662831	0.01722507915774163	0.03359931713442268
0.006549557695848786	-0.01564243914968936	-0.001911266130844106	0.01760805311749781
0.01288445484337742	0.01014276201006589	-0.002023742474403273	0.01772261223879803
0.009799951722454688	0.0366369029451568	0.009422690722317309	-0.00491381924853791
-0.007147356000324293	0.05053409060956612	0.01633082695507569	0.003925814731265947
0.006250531622420068	0.0366128213723761	0.01829179501754919	-0.002161407030115869
0.01396896590607404	-0.01383409758762605	0.0193870831514502	-0.01217768491503342
0.01108500197186903	-0.05816066291734927	0.03411182912324888	-0.02970444592603093
0.01815056600673694	-0.08882424075017878	0.02658536750036491	-0.0450099681366409
0.02566717036446584	-0.07819864362474865	-0.001723715044953539	-0.03457308789417452
0.03523411548965925	-0.02300923051191009	-0.03058548546894248	-0.01375888771612973
0.0135603182976361	0.006750245955552559	-0.03343497458892129	-0.003368753663465265
0.005869672426218769	0.03865507088733933	-0.008771656033693759	0.0001783557292141034
0.004360793289631872	0.1008605608291527	-0.0057448071764858	-0.002062572260295288
0.01219762065904977	0.09495806005503461	-0.0188413848690436	-0.01540919553720172
-0.01150895336561258	0.05990718519862923	-0.01657675917642963	0.01160296966018241
-0.01893306927733336	0.054378659476222	-0.01468469322086675	0.01925631560179393
-0.04377120701347019	0.02275408220219566	-0.02445881111117762	0.008434737819055448
-0.04591840063575869	0.003089957590068814	-0.01960336908085031	0.009840824641307679
-0.03314922146938115	-0.008389585612777979	0.02100534720252475	-0.008642627163306528
-0.01542426787403329	-0.04491581635828863	0.04050829209284119	-0.004117975751741193
-0.0135360727073047	-0.04872176493205853	0.04131081147021931	0.01229006546928856
-0.005698114881538944	-0.02835158517950829	0.03045290004693061	0.01830548249522838
-0.008308938750821924	-0.03001833407010011	0.02148841544865067	-0.01255563087716013
-0.00485663225674554	-0.03075382591052353	0.005991272221457545	-0.01243224654635621
0.008148328300508389	0.01704434125730038	-0.01049328656156807	-0.0102636252200652
0.0005692736830334612	0.0103159038297704	-0.0172220083373015	-0.007711840794116201
0.005027598418171096	0.02347736269259617	-0.0004801987300202084	0.01026106776088131
0.01530736634829443	0.06659826912234743	0.0002463009770326835	0.01540771297613065
0.007438307877539073	0.03909092253611304	-0.004924577470358401	0.004042782987999779
0.01647544737328951	0.002315094333579282	-0.009323545872355742	-0.002410831559102502
0.0243935493224484	-0.02329289795010642	-0.03532924835401408	-0.03146304804905276
-0.01410851438999469	0.001455818377593269	-0.05659479032200556	-0.05188411039826257
-0.03119905226861124	0.01857344448431845	-0.04916220698448854	-0.02879463911842347
-0.009244778407031959	0.004520071326348579	-0.02354261155044964	-0.004551927540704433
-0.001227967140415443	0.01073159355604857	-0.01178220630320811	0.00733624385515153
-0.001424734043889516	0.03277905977490403	-0.00445822229810572	0.02906262682024214
-0.002871476374218368	0.0219966157118281	0.01374432025900697	0.02869467737878168
0.005641009364181352	0.02540366615997243	0.03561970379280805	0.02129512202964443
0.002913659359521551	0.01850288329808975	0.05282944110825562	0.0289125920987134
-0.009422249797249479	-0.01523940228852901	0.06169437691262373	0.02664200762079811
-0.02057474317783701	-0.04515695250432349	0.03587752235505024	0.06821745722962719
-0.01378421098838983	-0.02889348980491474	0.02700002455732642	0.06387858637290197
-0.001523834341133592	-0.02075639697627182	0.0166868823694182	0.05032255291836624
0.01050362770933683	0.00726877879577234	0.009421420430970407	0.02662195899329706
0.01369362113462355	0.0006274090493904926	-0.008395798128410063	-0.04592008187668423
0.004286150402469264	-0.04391041020213255	-0.02604128081601817	-0.07226536753052518
0.007800150367797166	-0.0655392161934879	-0.02962643850026309	-0.09623309811828221
0.002797645366789221	-0.08993123228752255	-0.02867228332460858	-0.05695371458421581
-0.007808798628370965	-0.08479073569640741	-0.02591847439981642	-0.02484756514299245
-0.0003435392757923838	-0.04753813225426836	-0.02003036243431038	-0.01124622561208819
0.01599540737016023	-0.01004717312743709	-0.02651196965179065	-0.01198330429943096
0.02312463918735475	0.0461477797586865	-0.03606690129113838	0.005781846426089798
0.02071366210514547	0.09029855588950655	-0.01148838666265755	0.07018182037066628
0.005769920000268659	0.1179293545645738	0.00866777119881937	0.08174660314414055
-0.001376920801741318	0.07748810836290441	0.03330571981289009	0.06593753340432644
-0.01468227541579325	0.02286564215079251	0.06780439483286045	0.02364587301321757
-0.0121555408273945	0.01688286702275488	0.0555525390240117	-0.02391520791561175
-0.007510438802936155	-0.00512327547150303	0.04858097874802536	-0.04552660812000864
-0.01940881739678512	-0.02948153270491879	0.04435829047081194	-0.03660997144008896
-0.01138432725346942	-0.04008824906500131	0.002777076219567917	-0.02457998950860587
-0.008510598133122313	-0.03855786973982549	-0.01902166020658179	-0.02096390505460088
0.003977964132302897	-0.03871027411361323	-0.02672012270711483	-0.001688009317479891
-0.004143426591447393	-0.03781294618723092	-0.02394109500744593	-0.0007268331029118083
-0.01399998285966988	-0.03464751711098991	-0.01241311112466893	0.002599379103184374
-0.005657699689853735	0.01604016395155268	-0.02633237443683069	0.008809211843630092
0.006630144518635644	0.02639415288783061	-0.04102672710552253	0.008733484207690809
0.0002605456520629598	0.02045769041300054	-0.006563629644962355	-0.01360610136676539
0.009621783605336783	0.0214513150452303	0.008935337151582954	-0.03308232712336918
0.00540783304196586	0.0120566403201888	-0.007244367580418959	-0.02210674344205194
0.01278328046184844	0.02082140784192298	-0.004260232783410427	-0.02497837295131322
0.01484553285960239	0.0289900330636334	0.006028176621391153	0.006316992099024486
0.00594768604225819	0.01860480727823985	0.01882294853794358	0.04270755317806542
-0.01512956996414781	-0.0165189897737019	0.01280429946018954	0.05334114714750236
-0.0120136622719029	-0.001869310959095864	0.008006118364307572	0.04327062042682708
0.0005749470654451235	0.0356416604394951	0.02364884036506111	0.009583648004791877
0.01336600114726602	0.02682898141136181	0.002934412366094507	-0.0271564925755448
0.008230196060138565	-0.04124557295461835	-0.002832534617645732	-0.002597932326108443
0.0009921802528521225	-0.06985513363765705	-0.008640612761509219	-0.02255987443575897
0.006067283421417423	-0.06105371477640944	-0.002139599944972873	-0.01458003351570196
-0.0006125994542769111	-0.05681211692886826	0.01268353836078211	-0.006957109015232805
0.01269583166054783	-0.03156735135536839	-0.0136266082567536	0.00535514174922865
0.01117410531866698	-0.02488808047684027	0.01166860688895079	-0.006893346364427491
-0.01370526003553678	-0.006882950560078907	0.01272713027212119	-0.01062247436987883
-0.01315302214095825	-0.01966138496073409	-0.002663345916139071	-0.007939869938414704
0.001322635333670042	-0.005128617176561266	-0.04798009895634836	-0.008778902342903317
0.01376465891084566	0.01146154748258835	-0.04595093743780548	-0.001104951556716496
0.007439755148557823	0.02340204148035136	-0.01078916372524662	0.009833074965145358
0.004296212742963348	0.01579240587601427	0.01899869383716661	0.01776892258092091
-0.0011164891674346	0.0204638823368807	0.02714615660100918	0.02916032938083504
0.0009190157523580747	0.02906334773852484	0.02082088810964713	0.02105910474530738
-0.002046581792800205	0.04021952426236473	0.006962513494757678	0.03759479609166212
-0.001830728558630859	0.0241341972023171	-0.004123883957238581	0.02871760439091258
-0.009761967568307942	0.02976076119490807	-0.00259003279621147	0.03421734564466502
-0.005360743969048886	-0.05017071297926248	-0.003544186850858025	0.04096564866894119
0.0004984647908481317	-0.08230219679793641	-0.01860143118388659	0.01275808946426124
0.006446102295026269	-0.06423870489609004	-0.02751260062258407	-0.01923162121949259
0.004451305150094676	-0.01997131980073195	-0.02040957768115574	-0.01983116138219702
0.002552553131518754	0.03623553013532164	-0.02209626842611228	-0.03554156047600746
0.002866076339895469	0.05310485393892699	-0.03661174252305188	-0.04820246715923875
-0.0353652755154461	0.06514937833912848	-0.04899750905367168	-0.04215092445381621
-0.03660863555951147	0.09507629262610452	-0.009789679350448758	-0.02708122093384951
-0.00978003788273488	0.09145588714437397	-0.006246358991625399	-0.02344119028935525
-0.008471210178868446	0.08782625713534253	0.0121368923472472	-0.01885472833945814
-0.009168044932284026	0.06905903113968843	0.02664655929326937	-0.006504778493189151
0.008011867447716824	0.07477948190585654	0.02463176354803697	-0.005035219766571607
0.02278524212138786	0.08930465743004934	0.02634579794076102	0.006225918308610768
0.01613176149080828	0.06749900218898329	0.04352129999987786	0.01635819021384291
0.001484428415511999	-0.01004303220131844	0.03907945721254624	0.02374464548480244
-0.002737172743148556	-0.04288056085795953	0.001873639671958823	0.01938051600472384
0.002573667032325132	-0.0382478871703788	-0.005859218953556984	0.02077304126109428
-0.01309283943304137	-0.06843155141071912	0.0004864866266209261	0.01327387753599527
-0.01702049701013893	-0.0995239198790682	-0.0229426322887963	0.003525596617009113
-0.008126281954401585	-0.1209588869805995	-0.0002554088472227514	-0.008099388919005673
-0.01513479833336848	-0.1031928487241572	-0.01121462187402714	-0.01875881625437776
-0.01040744081416081	-0.08610476692469973	0.003641047134069227	0.06132933225457286
-0.001529388630516808	-0.05950934495957545	0.008328542900218019	0.01335832479876265
-0.01019469915780035	-0.03900726255510013	0.008666905019923675	-0.008727042042924514
-0.001844715512491393	-0.02226307232351325	0.01183070957291017	0.007101662616555314
