-0.004227627553754392	0.04734363312902128	-0.1125384170465302	-0.02313602559563311
-0.03772672239606834	0.04789939185671262	-0.08960559293149033	-0.03731710129098281
-0.03926162518597621	0.02817991615232173	-0.1509424591104377	-0.01709665296559546
-0.0293207186503887	-0.01721969986339715	-0.09777362821694223	-0.0184963512090029
-0.01632838097421983	-0.05525742337429821	-0.08373346451062107	-0.01169866053487642
-0.0004362873895539356	-0.0833926016176308	0.01730138095522047	-0.01726226044462205
0.02095459810423928	-0.06565268434356644	0.09520931152694685	-0.02135269274767866
0.03998319583104896	-0.05322740658488107	0.09618198863831884	0.01305234864347565
0.03090402388471471	-0.04396901280386981	0.1110846319266217	-0.01184999568058921
0.02281950186836781	-0.01087029567564285	0.05261095850723028	-0.01141766356862115
0.0174415810289925	0.02396617104772447	0.024610475479146	-0.02104668525742009
0.02222323612380981	0.09823404303416247	-0.003537468398165678	-0.01970160865966114
0.0177131378780926	0.08035067067594748	-0.003971859703761158	0.06345185535386098
0.008044711250583321	0.02577420812921358	0.0008527989402869387	0.06556751438790726
-0.01253986508923683	0.003335833497303361	0.00266713602746328	-0.004573668185654803
-0.01333305178096015	0.006262029723952183	-0.02474826671696987	0.05825789704243398
-0.04207856854907827	0.009411508532679644	-0.06193458777100577	0.01984426425715381
-0.05406148664428807	0.01665376730476332	-0.06547315297535208	-0.00721458340306941
-0.0277979235275142	0.03129575048671972	-0.06644587503863753	-0.003571158229338455
0.02376712921673166	0.02777300196707814	-0.08085686164774959	0.01856373089283396
0.04605631447424469	-0.01314612493906719	-0.02276966754854944	0.05090578290123561
0.0477008428996157	-0.03796793255526155	0.002001448540730688	0.03741474814110717
0.03176415166908986	-0.04503963422182521	0.03835561563170864	-0.02136995989163733
0.02182335371978425	-0.01586126979288629	0.09050380121813457	-0.01064016120548871
0.006203215335129389	-0.002808097331776661	0.05304572310336159	0.0611250880035714
-0.017182243654127	-0.02080352555524399	0.0453967351109373	0.1109620267560361
-0.02234855238233961	0.0001356335718801121	0.01606467459471383	0.07789427442893264
-0.0251495717698741	0.01703346493352516	-0.03316883888001882	0.04370906082127485
-0.03885436220278819	0.01510102755209608	-0.03664347547314668	0.005868923829686333
-0.01500399278195011	0.01962206437626168	-0.02444937798775479	-0.1108413594231123
-0.004690857075744619	0.02339585397083606	-0.03869275168390118	-0.1107325005883584
0.01743354249837462	0.02279359135935544	-0.07783872795815318	-0.06044021278576264
0.02639383380736369	6.868521172139408e-05	-0.03842693472461443	-0.03345773536931635
0.07682051938533754	0.01135236708740352	-0.03228807606019679	-0.009049673918047736
0.07779071755513817	0.001984097849006353	-0.07479412167765148	-0.01680454598899501
0.05855018773706941	-0.002570214884003955	-0.1076578181246379	-0.08508863667224353
0.02891383453361671	0.00215836591413649	-0.1222466215557546	-0.08591184412181403
0.003715562179058062	-0.001592050406650808	-0.08005211572362647	-0.0547122285608648
-0.03068923583160618	-0.02431770393989304	0.01259821676511097	-0.06132104059378141
-0.02587175805414678	-0.01886836277105127	0.05002389264095557	-0.05317844739527265
-0.0342368633338528	-0.01731127620650839	0.1360051697351367	-0.01156405111681185
-0.08514622576511126	-0.01943045003278598	0.3019246760641483	0.0754199114734173
-0.08786933050297016	-0.0524133437899825	0.2730731512916205	0.09980944329590383
-0.05845707475664604	-0.06968105040857683	0.2153855204578084	0.04911487213755251
-0.03642635111465044	-0.05759081764225188	0.07165800151911804	0.0414727232889898
-0.001522949473905091	-0.02689459409233349	-0.01109587637323921	0.05788002905211721
0.002182023528148531	-0.001104942387920247	-0.06904553616306905	0.03974579741603782
-0.004456007122410665	0.02716522317393449	-0.04804866367400368	0.01756254595719482
-0.007816636131988573	0.04292142758646601	-0.003842614781761056	0.00513846235036476
0.02347954274527467	0.08834122066714875	0.0001322131981825155	-0.02489658291178791
0.03247434807925845	0.07522858346385393	0.02318700641457841	-0.05192606299129885
0.009401323738471728	0.009181286223966249	-0.003042860601268026	-0.05250111468547332
0.01612973745725401	-0.02637618771855777	-0.03996430012187317	-0.03259947057372067
0.02180318883966061	-0.02002905976175742	-0.04802996922662973	-0.04107600065747093
0.001564370894707694	-0.02308950089149438	-0.03674866622993971	-0.03876800747247486
-0.0002880249524464571	-0.0200017500868959	-0.01719242991694254	-0.02452133628723641
-0.001937817731903821	0.0190328798422878	0.03801792045033935	0.002896148255237041
0.004348048673223743	0.03927015852447029	-0.06885892460623652	0.009573958096334411
0.0008579797263961694	0.01015127512417948	-0.06202494256352049	0.001982506663597923
-0.005619111357571559	-0.01084231968927249	-0.03716811245007434	0.02179736206287604
0.01041856230546287	-0.02359240918678947	-0.03897815464660548	0.05426968095336533
0.01980244318559237	-0.03449779155046975	0.03069051726504538	0.0807202597124924
0.01677514828152168	-0.04755542858071841	-0.0255690019850016	0.01439790897940317
0.01967971657529416	-0.03342890352348546	-0.006224967867516864	-0.0135204469658067
0.02021089864176398	-0.02249397271993864	0.03888264692249563	-0.006667136523691912
0.02173973376139971	-0.01196960804990405	0.05576993265970762	-0.0100435287118681
0.0304758672058357	-0.00852489219148387	-0.02234313547367579	-0.02472383292443365
0.04052392564091925	-0.002610841267521394	-0.006316039658722549	-0.008784393688159614
0.03842858234127363	0.006494533792477841	0.02860411360530426	0.06513041933155325
0.04085544247527482	0.02804144392743389	-0.02323452496279491	0.05233409625172474
0.02985671726048254	0.01105371921552037	-0.01189598911825003	0.04782941817503671
0.02469991754377271	-0.01621151004434301	-0.02462305015441691	0.09357591282942726
-0.005538296751868215	-0.03143237700913674	-0.01104611750088664	0.1143504323546073
-0.0239992062399015	-0.03922300937953634	0.04139752107257164	0.1204748130274566
-0.02330656370563045	-0.03234740462055769	0.008824299972687718	0.08396720584436138
-0.0393363270524776	-0.01383925618621831	-0.04305143142172074	0.02555371794732639
-0.06403263488391886	-0.005444937086458925	-4.423869064688196e-05	-0.03662930577796144
-0.05697500448085174	0.06085389852350752	-0.02697462902195105	-0.09016008857356647
-0.04041229429428365	0.09860408066859021	-0.1002185049354299	-0.1281506456331695
-0.01515212698157326	0.09698488876394899	-0.08621500357632857	-0.1109900345847348
0.009227848146984016	0.07020755533696954	-0.04343552078976976	-0.06171665523386206
0.005826159066932862	0.0539157844170041	0.09047820956832642	-0.0649173839861333
0.007216037101882852	0.03659788714143729	0.2621737579138104	-0.0259920469453372
0.006334005101138653	0.03188765325871058	0.1274230922739109	-0.01536207681456425
0.004270046644996127	0.03612903803427577	0.04130564103184621	0.05729135466015523
-0.01961368019339377	0.02533948311980808	-0.04383211195284712	0.02296116371140798
-0.02801785133534842	0.0124279426542496	-0.08324174456902948	0.01506068335461113
-0.040419552867137	-0.02358565391477417	0.0099666838115594	0.01070720314963996
-0.01477120077603867	-0.02496428775115705	0.03186808141214987	0.003478493884109316
-0.001393099557770952	-0.01631168617540913	0.01128314876444695	0.0201357108371889
-0.005964762622894955	-0.02321719849647518	-0.007121326954980477	-0.02436200133913753
-0.01427893037214828	-0.0517812138684662	-0.07791693419160836	-0.07144694672874179
-0.008918381688932402	-0.05645128736711611	-0.1103461268949104	-0.07722501079908071
-0.006597848099974811	-0.05824357044330423	-0.08649661146526427	-0.04889282715838794
0.002170028610690658	-0.05479038054769556	-0.01573031332156441	-0.04797817815890435
0.008882488679529876	-0.04535687584850324	0.03013826579169812	-0.01908421699951316
0.01147145538905401	-0.03344498324440331	0.01405644035999716	0.02180919370224729
-0.004687701820602143	-0.036432695318796	0.02918655584091934	0.0484869854235782
0.005268975583709506	-0.02849355564466816	0.04177686706014345	0.02257191241267124
0.02433139559805602	0.002162622133720643	0.01435565967080381	0.01669768162489734
0.02524364646865237	0.03719003972669321	-0.04996871356467578	0.01166363999703372
0.01627467417705984	0.06177123246218463	-0.03362748624402315	0.007405504574347285
-0.00281210377385515	0.06834246416827433	-0.03260649353112723	0.01203157959599489
0.004455118191488524	0.03920990411491285	-0.05774948324278459	0.02358525900914287
0.01049437252866296	0.01996524767041147	-0.06538740786361692	-0.004133181135172243
0.008316722980899397	0.002618121995156346	-0.02538459757014407	-0.02107791917652345
0.01910309033455339	-0.001888543790376432	0.01520138578276295	-0.02518445754622336
0.0007476666725461365	-0.02068579413686113	-0.0005645660165213286	-0.01601771781891691
-0.009808243079467097	-0.02865559743725718	-0.1062856256179526	-0.01264250075327572
-0.0155723625182832	-0.02937997271264138	-0.07367481457307284	-0.00554896296585299
0.005069036512513113	0.008178777516160281	-0.005841570679343686	-0.02476695863760248
0.01623105210888871	0.02670906321948717	0.01681095649109585	-0.02187732449451408
0.02206387724129489	0.03167016232270117	0.04695078096916182	-0.01747641910986412
0.04025458545864289	0.02337374797648709	0.01714498364597542	-0.008655195275217421
0.04420072270207085	0.01742385829674338	0.03167206902258165	0.0145797793178244
0.04879984933760362	0.008157880665739947	0.06886389735503402	0.07127544640756701
0.03560615922594804	0.01412871256304847	0.06656371457208995	0.163450701602499
0.04087887914455116	0.02008078934771859	0.03989474900519215	0.07653514504541691
0.02788476551536003	0.04692920289826582	-0.03310632948729246	0.04016416677308195
0.003712612328008939	0.04730729156596592	-0.05429713741657675	0.05080971804748783
-0.03800903580506697	0.01126175324939942	-0.04491042126605282	0.003011924247664766
-0.08175400040829986	-0.01128959354293956	-0.09352578142929129	0.01779234500185851
-0.08503724441265013	-0.01599234696433686	0.03680972714190095	0.04885230474200866
-0.05751567780947809	-0.03674815631806575	-0.001483980008690459	0.02719619022018738
-0.05154248285184193	-0.05492585305390064	0.03285900823562696	0.005515109555756126
-0.04616182190709651	-0.05377358100295918	0.08127936047561569	-0.01235004931411207
-0.05673929087752366	-0.04431801511645619	0.07557130525681909	-0.08631222854951467
-0.03350303705511378	-0.03443318006442	0.03512522267735885	-0.1002662494067936
-0.01405296157665993	-0.04068869083473917	-0.009092238223306055	-0.09901665984569001
-0.001615754613402086	-0.01044681227056119	0.02022808710917021	-0.01721742023526761
-0.006178990546111496	-0.007397374904284345	0.05301764825061196	0.001010930518206896
-0.0130292675685937	-0.02172816910311732	0.1508777455351314	-0.01911264683154688
0.003512910247078422	-0.03113959111597512	0.08833072201987209	-0.01654833254765151
0.0396647674951482	-0.01997170405659652	0.05454703319081473	-0.004356320111712003
0.04606130589047332	-0.01222225764214196	0.03490422944118649	0.001495399124834659
0.02092862833487731	-0.002790569587703099	3.871801014155977e-05	-0.004396523042523429
0.009448388458780717	0.004452805783486958	-0.009018704457276712	-0.01414632103512581
0.00718268198349363	0.01141167781238022	-0.115716009340974	-0.004253930765510176
0.006920353452808835	0.009551858982022664	-0.1458599382632778	-0.01089495071696288
0.009702832586406423	0.01758883406622897	-0.05419430668245479	0.006356323225378263
0.01789680423350082	0.01107323433941782	-0.03060287665929562	0.03357286185453524
0.02749974983644704	-0.007344954362442583	-0.01102484056546588	0.03974738262489711
-0.002503296023185762	-0.02588860884840431	-0.04256518217117471	0.01119167116457525
-0.03933020432356404	-0.04349905559266545	-0.01970467572981793	-0.005813871174664502
-0.0268146394056429	-0.02676561058317453	0.04336101690507371	-0.05304562664989311
0.004520263918253284	0.009182069423985154	0.04383206497701561	-0.1322950964752035
0.01658556544769325	0.01608456190909276	0.09180280176431198	-0.09640125162027129
0.03537180389318187	0.01633847176022499	0.1617593175484571	-0.01568126905158203
0.01760909337369846	0.03685476427987793	0.1785319767904109	0.03503125490255093
-0.001012539774570847	0.03519850177530109	0.09132837140042896	0.04490795253448492
0.0004793912324510198	0.03514343516390065	0.03572244911837055	-0.0008958193303905419
0.008888537630915967	0.03763948874850781	-0.007899255924326607	0.006342591488162904
-0.001195067243842796	0.04197534517777198	-0.03828046155285867	0.03208002778430781
-0.003446738894380255	0.04198102906890198	-0.04667170861821374	0.03642599195649356
-0.000463646295746413	0.03943522372343405	-0.06667128502731121	0.03233658493960597
-0.009393583326832326	0.01690428592035704	-0.05747356072925907	0.01974023721341884
-0.009864368847555881	-0.002183831825268868	-0.05371679979081393	-0.007393083566460758
-0.01546053022385682	-0.02909657042157849	-0.02692415803203291	-0.04084607819288118
-0.009192364150953888	-0.03642687843500619	-0.02484194071826094	-0.04541908923725202
0.006251392400113204	-0.02211366907003757	-0.07727614043434768	-0.02139901369535865
0.01314335371333893	-0.02501697048941768	-0.1442754547709841	-0.02701122788129022
-0.004326669326669463	-0.03237305152613634	-0.06988012214594366	-0.01557204037728831
-0.0003498813639738668	1.957941598189225e-05	-0.07754789685412553	0.001872018420428105
-0.007136628833990406	-0.0045195545553588	-0.02225336140234921	0.03890776243028873
-0.004365303635503442	-0.02305164795727426	-0.02462502003495536	0.01063635189404225
0.03799311105654105	-0.005440189048163458	-0.05488737318656038	0.03682638300243921
0.02205507843788622	-0.002298201938995879	-0.02748390930939193	0.06155749061763898
0.003242453898946491	0.0365937339342363	0.009465465008582507	0.04357709145982062
0.008306877070194502	0.04793276242552545	0.2001831950676779	0.01133869349597857
0.01158755947221474	0.01234978796289131	0.1668697926600746	-0.02074860262302504
0.00413626792033235	-0.004356048726086754	0.05533705893521886	-0.01055605960154853
0.003991678969614357	-0.00779508698412854	-0.1301837037985329	0.03789112547727223
0.00140436169736905	-0.01371140511282183	-0.1304772870608719	0.006118188321504424
-0.02412757134573357	-0.04045699216382266	-0.09781810818531313	-0.01406182633119766
-0.01015834687743435	-0.05531896085725405	-0.110963341284183	0.01412352841834105
0.009408155790364506	-0.0300708864044588	-0.03308277494816098	0.01005781281078894
0.02047765698465098	0.003439250506488205	-0.02871235060589311	0.01578122504673316
0.02327543811837654	0.02416140013150742	0.09339457198346859	0.008658012669800277
0.02325545910673494	0.07276976856427371	0.184019675634699	0.03837573887393025
0.02339442144275572	0.09645702464064573	0.04786381862265413	0.0780073916255557
0.01018290036749823	0.07426918505300568	0.05970940751712753	0.04155367973286042
0.001148954063970603	0.041136617925171	0.08081164275974259	-0.01357447570017428
-0.003868517914405717	0.02688787873857295	-0.01287746403056627	-0.03789702860475048
-0.004895668523744574	-0.007510782691850825	-0.04936088250568191	-0.07741465851476503
-0.01180037493747919	-0.01809895730411847	-0.05089194764675463	-0.07465609271911115
0.007735948952568183	-0.03147735073984081	-0.05725647144848185	0.00078384439285925
0.01951386649115957	-0.02617881761684895	-0.00370332754575754	0.1073789608348062
0.03215192124357577	-0.009935301960242032	-0.0130095354394649	0.02367375978887234
0.02051274120232519	0.02297980987878877	0.04559340597749379	-0.04088832464368725
0.0156357103559637	0.04855376391467609	0.05442969066031441	-0.01452351999562425
0.0053431736849311	0.01715115303356074	0.005104003283964301	0.04507908401091133
0.0004440201908059633	-0.02592745373346879	-0.006396084159516708	0.002873100619022202
-0.0009298733734055401	-0.03133038214179813	0.01637508237612488	0.007216669784179348
-0.003163895706769197	-0.002825162769564949	-0.04235586403944021	-0.004407654155005381
-0.01261770675467789	0.01426797627710511	-0.02390435302977038	-0.02739446996271525
-0.02117407097124429	0.01926019444709033	-0.01665514104372235	-0.02224373052186292
-0.01377498430629536	0.02357253563168329	-0.03944651583482543	-0.01310962208192714
-0.008657757670122833	0.03019894229313608	0.003876250264559504	-0.001947770168457616
-0.01799167277911539	0.007923045198280874	-0.03473648831577157	-0.01767652735997079
-0.01182331279136799	-0.01247847902781645	-0.03908851483962959	-0.005448746411507051
-0.01149393148532179	-0.0324318018825926	-0.0276048755275963	-0.005219969042990063
-0.01799143381444124	-0.05289987362585023	-0.04479291997678749	0.00684438107780594
0.001080915874976423	-0.06575726150539435	-0.04780947921538453	0.005902572051889653
0.005332492593316612	-0.06127227431576612	-0.003177366059491728	0.004465176286515646
0.005776903438734915	-0.05614478985643201	-0.01534692515252322	-0.004537772033987835
-0.03123062247848302	-0.05815156773151991	-0.05793794171000975	-0.0001325510123836979
-0.06254875828934864	-0.04995044438772161	-0.01126464987611089	-0.01627858892323893
-0.07411510514814711	-0.03972595703303475	0.1104318858448106	-0.02560453858765283
-0.08954523073784613	-0.02848673933682685	0.1630413959276549	-0.0327071574118004
-0.05461796192318343	-0.008240529373621647	0.0786952750878501	-0.02780716945552507
-0.03970928714232787	0.004332128074382289	0.01187011680449103	-0.02364868808296962
-0.04059629501522125	-0.006938461030479714	0.0490504782289631	0.03177906311629928
-0.01939407520879602	0.001073017646638874	0.09956636302561198	0.05097908015725149
0.03506529679012962	0.001688709009907901	0.1335774722260054	0.07568887781836463
0.05569204140960967	-0.0006322666637412575	0.1153658988284018	0.08120953854485122
0.04537831596372782	0.01607810692650002	0.08397613647046705	0.04654493874463132
0.03946051977912072	0.02953577130395604	0.02046052146504643	-0.0500311104764211
0.03896462828250995	0.04165885296498406	-0.03654571151877757	-0.064413210156149
0.04859372487384988	0.008290319673304819	-0.09920541366690437	-0.04256423382068709
0.04447236918099566	-0.007237344291826853	-0.06107354079561031	-0.04269508890645338
0.03949907146806243	0.01128469607624377	0.004840314944130075	-0.06245787136395435
-0.003324025437467889	0.005561720585949095	0.01995347399657665	-0.04859729878411465
-0.04099423658388844	-0.004688566100480839	0.005842330137141756	0.01097986735012632
-0.07242807305511982	0.008764049733965912	-0.04455406846036512	0.08438444679824006
-0.05353254873689497	0.003429407098352961	-0.06464096644533744	0.00238011526835547
-0.02239895667147725	0.002003744328626223	-0.05436244344318378	-0.03636284578183141
-0.009851961566763059	0.01571785302669861	-0.02278065544223494	-0.0004446067029885479
-0.02734359266236801	0.006824748799559533	0.006529278622871604	0.01668608150770193
-0.01316341549626809	0.003563831787153465	-0.007567661382707537	-0.004770294185675991
0.01531786857403196	0.0284766574674725	-0.1077823852792226	-0.00695116676566225
0.01726094937762973	0.05375706903068322	-0.1361622415613715	-0.01301747326386805
0.01014578934156164	0.04589313132633642	-0.0946872382561145	-0.02170831889935132
0.01165855982366965	0.04643976073551275	-0.05896896925494802	-0.03362010061806955
0.01483850461205535	0.05082775326226007	0.05433051505123945	-0.01364448019996392
0.01579168478292152	0.002256931463098479	0.1341091459478815	0.01472819797215306
0.01308390829999166	-0.03882278449745352	0.02187126542454588	0.04055420783852189
0.001744009127720552	-0.07871217735411594	-0.0006619139718819413	0.03873345361768388
0.01788650283387735	-0.07825170650317381	0.01354243359538298	0.02037942198556879
0.03062920116406948	-0.06949815081918612	0.04933272555104203	-0.002523736772285181
0.03313364362103055	-0.04171607123087236	0.02995970206494922	-0.007367961224696729
0.03457922451182092	0.02417842706289407	0.03262665221920183	-0.01163050927402792
0.01671321285600547	0.07097812336018026	0.04467836470916922	-0.03227416556150525
0.004773322506560542	0.04941952356467461	-0.005557044805416659	-0.04113037343328779
-0.01699367612290637	0.03708534402062086	-0.02026825885770257	-0.02351808615534106
-0.01730438095199215	0.04429028792698284	-0.03173729758759264	-0.0004913807190599912
0.01394215574359657	0.04519696645029778	-0.04560415922820096	0.03667541472893833
0.01988664830303709	0.02456254944288659	-0.03400086402866812	0.03188307425042539
0.002758529334884503	0.006696432393556056	-0.03859529901480326	0.03503808762098386
0.001661640224042175	0.01180821436827753	-0.03604950044846018	0.005319109442226657
0.01040594238351226	0.02359221005579541	0.007983627749236201	-0.01394295754371081
0.04757497312082781	-0.01538983806830242	-0.01221622175651385	-0.01270343671877301
0.0288608417580048	-0.0530809903839481	-0.01567383244768439	0.02593082274524262
0.01175905007597563	-0.04878081038000391	0.01920999500839653	0.0761453755197633
0.01248405392223449	-0.02486708938032406	-0.04249430931667086	0.07398921556313304
0.0203399125904286	-0.02642304606149709	-0.03591658978377258	0.0190938491493819
0.01904703610114206	-0.006945683014036937	-0.08127802654920416	-0.05076518267223649
0.002308070047596406	0.02079582289015756	-0.02867745157733574	-0.06431769899312696
0.01003348692101992	0.05012600118618447	0.07336454321959245	-0.06208663153790724
-0.006408465140240762	-0.007514344899443475	0.1286338000968995	-0.03403738799564053
-0.01103193311691169	-0.02748186743533995	0.08062050498846297	0.05700284368796996
-0.003317697436878774	-0.03339994199030049	0.05073375532377625	0.03698926290402623
-0.0004424885308739785	-0.02698353820476968	-0.03445011848418861	-0.04811022375122072
-0.00654654085270538	-0.004840232166616927	-0.09909326337450911	-0.06750210502465617
-0.01651897415819697	0.02334457662881414	-0.03245831910439451	-0.07261129053362088
-0.01502624573108573	0.02683911341191813	-0.055103978407281	-0.06323001276430446
-0.004147710997787281	0.01055433266907305	-0.06478591769001865	-0.03228280028069182
-0.006694422972729693	-0.0005344557740158485	-0.02966519465148329	0.006527082506494324
0.000686609006940379	-0.006643007126246644	0.02573458419300564	0.01378557387652757
0.01594571800388662	0.0106169298384692	0.1136963612439739	0.1117703593309679
0.04203275125876101	0.02317427407215678	0.1388662477113976	0.06074673073984378
0.01371088747997315	0.02015251651390453	0.07859418454323268	-0.01999374353087242
0.0006309249299162702	0.02705794945144427	0.03992528947721372	0.02876258629414011
0.008947018773068959	0.03331763375100087	-0.002579669395101996	0.05238770388652032
0.007223575646183818	0.01111831338445052	-0.01109986385938763	0.07235048323577879
0.001737953347641369	-0.01871052191669639	0.009875710195303245	0.07556252036120506
-0.008819054602169984	-0.02796143515075988	0.04056568299845355	0.1089664068897218
-0.0204316581993889	-0.03055947816021244	0.01642143024633249	0.03928135035618066
-0.04385686366581198	-0.04510014803473965	-0.03723311433994699	-0.03538406214935157
-0.04313432339542652	-0.0267747377544342	-0.04368060016560969	-0.05748570109702839
-0.0237504321489097	-0.01291403197184543	-0.04467675182468716	-0.07300566963858227
-0.0008449733796029725	-0.004890423517934869	-0.02001738200833809	-0.06314385578294043
0.01026440054832956	-0.007354369415078658	-0.03582639580120125	-0.04562181297386482
0.01227309691207498	-0.009804208122400685	-0.01380769250256582	-0.01036674123075251
0.02448092889197021	-0.01638783385111664	0.04592589452859661	-0.007519452239182813
0.005997993388618876	-0.02408735458624118	-0.04229204537416962	0.008719533221196294
-0.007369977189891502	-0.004354854830160333	-0.00802518057369476	0.07379316514479872
-0.02609391392146474	0.009171319685545746	-0.01979836476344186	0.08783905307128005
-0.07646357503032317	-0.0007242733139770335	-0.0475248286250013	-0.04075970167923085
-0.06987848466321241	-0.002457288550636983	-0.08807660482316258	-0.02365446626917449
-0.06263977851367108	-0.01351615397205428	0.009689215650374635	-0.0302214841321826
-0.04807978572255776	0.03582535288435092	0.06633290709896836	-0.04154486515610439
-0.02727436351234689	0.02304718831861695	0.05571750388071396	0.01810148088028057
-0.04531599339492045	0.0001466332150399597	0.007412579277197356	0.1021971150943586
-0.06097376339154538	-0.001344034284688283	-0.03819434814387611	0.1191692042755778
-0.02870522416625381	-0.007452673816140405	-0.0765544682897764	0.08599950876029264
-0.01676384017542208	-0.003185635109856824	-0.06337064190216962	-0.002397186904958929
-0.006041004524631851	0.009579260990587434	-0.04079881496400505	-0.09416544162244288
-0.002385890228303186	-0.002376354869453497	-0.007179022938653912	-0.1442429963864176
0.007935458549254417	-0.02014617049947337	0.093886428838825	-0.04585943105471314
0.01362304703720506	-0.03538660839059265	0.1487238493525506	-0.0519876527972482
0.01418389493772089	-0.01631862382939098	0.06638413249921066	-0.04333290917213885
0.02787236450175827	-0.02540979306727044	0.05721028186530344	0.01356370652055591
0.03766560621256088	-0.02057998886467171	0.04711150779398961	0.02445049434559102
0.0335339005101296	0.01797648377805655	-0.01461994044875787	-0.02962217308702548
0.0378797295466568	0.05850365098284316	0.02564001343629635	-0.0772633400521496
0.0249790561897877	0.03828438204303024	0.09201209570429472	-0.07454079960903744
0.02062360382046659	-0.0002906258484496521	0.05143130649951819	-0.05237530195266682
0.03217434863750188	-0.02294130167712012	-0.001717495846697599	-0.0362600789109672
0.02698506924655401	-0.01566176105888794	0.01018905020017975	-0.033107090785057
0.02654962334433764	0.03005384112122144	-0.0532092630152243	-0.03276856028849413
0.03095287597192009	0.03176843205006923	-0.1121214692803728	-0.02623214016515603
0.01388256380780626	0.01244735873511863	-0.07144612473329563	-0.02858291752027015
-0.01850465375661935	0.005325045426886561	-0.04722955109925549	-0.009331395265012787
-0.0158426394180861	-0.01757553632491047	-0.003579731586836036	0.04460124405830749
0.004817371369369837	-0.01492728062993546	0.06136424875999251	0.02665654955678579
0.005146779466390966	-0.0207295115520061	0.065896280530235	0.03791527543695159
0.01242210176613496	-0.0145683380951028	0.03829874793777228	0.05618865693657188
0.02347290955623058	0.004362145712899722	0.01273598675417598	0.05989368915736359
0.04630253193582527	0.04462620503456767	-0.04253716955009041	0.02372074289440096
0.03177820655224322	0.04896704597201635	-0.02464898120486769	-0.01793388732834153
0.01626050076637569	0.02756246364243274	0.0006021380727200183	0.01711276128338586
0.007160429000321927	0.02276467179539039	0.04951053884635834	0.02912452619862931
0.01509820798931393	0.02829392341723901	0.07467698116905136	0.03411106569431571
0.0182379611649304	0.01407629877657502	0.01278590736329399	0.03738649732505666
0.02111115743909024	0.001745771462539541	-0.07120984618317744	0.01960103898149577
0.02873202628065691	0.0079198990219062	-0.0638672334202724	-0.004159408114053873
0.01884185637441011	-0.01083198062736501	-0.08251182535050064	0.004494684137482874
0.007291088025670365	-0.02843679310309663	-0.05997849431885394	0.04228275970866122
-0.01043253237612745	-0.04420875056218183	-0.06563805436809279	0.02131411272113289
-0.02879549746270437	-0.03156385227547256	-0.06205299393390717	-0.0313463443776229
-0.03606483725884047	-0.02428423521144601	-0.06539890355696826	-0.07696554119050196
-0.04534205209971182	-0.0307399439200346	-0.09414103874479024	-0.09093786837990692
-0.05249023049312958	-0.02363011707710464	-0.08078498999985322	-0.06573333822725573
-0.02398917674145272	-0.008213505851010043	-0.05650444811682104	-0.03960126842965824
0.003015778753754872	0.007043458165344531	0.06728266358674428	-0.01368637780867631
0.01682672226966121	0.007981566099691698	0.07790455037025233	0.0371451031197769
0.01129751858648398	0.002497079811471837	-0.02690108713847001	0.1277791570152838
0.01258895876915297	0.01836214461246561	-0.0554692864913568	0.16289669431201
0.01246758059906017	0.03842921643864055	0.06284058118391027	0.1054194780276065
0.005084161285047651	0.003916042748591839	0.03462292989037551	0.07900162182733754
0.02575413954041665	-0.01002046183032349	0.1329569839054293	0.109231272972546
0.02898608519589313	-0.03154665401479304	0.2233063588262911	0.1138582726602891
0.02795251778221106	-0.02013546126288643	0.1172770632041277	0.08157294447895673
0.0114545660272432	0.02407694309668516	0.05292575268910156	0.05633975859576865
0.01359527175263231	0.05627635026564901	-0.01399711999412383	0.01627324595199831
0.01372647621289978	0.05238048069128318	-0.007893839494426378	-0.06757258186034112
0.06003756781266303	0.02087186047236794	-0.0945701090636254	-0.1617792602641687
0.04596112680798817	0.01530565615750064	-0.09683505646286079	-0.1194094427668954
0.03127466963670377	0.01558775256513229	-0.04833857603264306	-0.05230687912676295
-0.003602355941886992	-0.009828464626313952	0.040981899946164	-0.05171219961343218
-0.02181929236753678	-0.0116116227461808	0.03362083908916651	-0.04112993689376838
-0.06350871327575881	-0.01827361645368584	-0.008791643722983364	-0.01028889281945863
-0.07201753982517332	-0.01350217476777726	0.001502163253456844	-0.005697417657116345
-0.1167849151457516	-0.006301209632756229	0.01104299626667121	-0.03050412128250678
-0.1417145592589764	0.009214008886913743	0.03676467902900641	-0.05282202832382146
-0.1753164774422053	0.01047183653703697	0.02921057359381799	-0.01484646775676196
-0.06102370785598841	-0.008490853550495255	-0.06092147430688604	0.03372744618277202
-0.04212015249878061	-0.001521216602427379	-0.09153417467182674	0.03951287285023027
-0.03406142023144568	-0.01815244972711213	-0.1121461745688134	0.02667110486384843
-0.009611824712966935	-0.01990728258589346	-0.03590972415773144	-0.001677469780731506
0.01302937462758269	-0.02603339433069985	-0.03339131067809293	-0.06726186541385146
0.01909179879843259	-0.02646764310509576	0.007968702740511147	-0.09463363812213749
0.009674402085913586	-0.03052147569508473	-0.007286968778861378	-0.09369447209195242
0.02010186972294149	-0.0263388998385846	0.03394134288750938	-0.07724888393141084
0.03788533746823262	-0.02235265834025943	0.08743715881754303	-0.04697416745158931
0.03765403804105877	-0.01385282262937075	0.02394025007039311	-0.04506959479499777
0.02152743902262511	0.01231618525373731	0.01537571064935064	-0.03409077554851107
0.01002231218457331	0.01229199332486185	-0.009758942316558748	0.04238948104170936
0.01590515078951013	-0.005710262827731362	-0.01490557432647234	0.09557850889695145
0.02833071422918444	-0.009878458300367196	-0.01842968364656399	0.07953482159348713
0.01828732393776734	0.006005676838154817	0.06979058708319177	0.07743122080348763
0.01259199934687326	0.006172218944908083	0.04548045707788457	0.01959844084178232
0.01058497270498886	-0.004201858529765798	0.08278235576566272	-0.05316809430014372
-0.005833143138336214	-0.002596813865545252	0.03799493397913699	-0.08265090351873774
-0.04797298912389381	-0.003844257636864043	-0.03960281143150959	-0.06853477386500774
-0.01277061092521109	-0.006175557739799484	-0.07352375760112044	-0.01277051437453735
0.03078715515108039	-0.01529200812756162	-0.01723909077308383	0.07417863754553487
0.04699980693353792	0.003964843460880161	0.05362333410167446	0.05506552135358497
0.0348500715684416	0.001838701821030178	0.003887822153222689	0.01276953715211005
0.02430055068632271	-0.01846205268117625	-0.04006044948994598	-0.004774456927270111
0.02224824783876878	-0.03280429547401516	-0.1139842225088473	-0.01184070065223324
0.03051478515798399	-0.0368222627187961	-0.09208205011424089	-0.01828242866310453
0.04153558760400641	0.01516963236619675	-0.08633235712653667	-0.006157155254042288
0.03956517782394041	0.02121387762994654	-0.06397549977338572	0.01750842687927577
0.02547649748587637	0.007563383163382211	0.04393092122845411	0.02057636618444645
0.009076803233098707	0.04171848498679687	0.08602355460374407	0.01412994705092062
0.002243865480119275	0.08755714590114619	0.06816963522025989	0.01281157728792092
0.008092777933751686	0.09853690666416172	0.04467987933621924	0.0006018455112447073
0.0150665843775245	0.06237794506439347	0.08310474430803406	0.007597618021347786
0.03422474656224372	0.0325055052030736	0.03074760352566564	0.05308915587910042
0.02620627734295148	0.002797705335751052	-0.03928053467052737	0.03158720935281435
0.03475044667883487	-0.02063164228235059	-0.04677414034279359	0.0237098419719434
0.0398787376433001	-0.02901194622456457	-0.09625570079575649	0.04770954361180921
0.05095038098661996	-0.02678205000938661	-0.04046097524942763	0.07482473536013765
0.04424154640687925	-0.0205746724400917	0.07806967828438333	0.1127035872859035
0.02477694154511154	-0.01071142907143743	0.09112622620710246	0.05021649814087363
0.004815016403164668	-0.01072698129018915	0.07771314661196256	-0.02070377343979242
-0.0009923894694831943	-0.0005702597645278913	0.02504239722859854	-0.07887663912460298
-0.0009292753580852534	0.02121438446340864	-0.01660799864685109	-0.1013894209956721
0.01067079990005792	0.01548096457625959	-0.05019084934755108	-0.1171619441017406
-0.02538717579717154	0.004349152851327159	-0.08589808535039488	-0.058273393713456
-0.04252429568901379	-0.01465481717006778	-0.1012171830110033	0.003518941785159489
-0.03991360000804179	-0.0137146016939415	-0.06529781333508695	0.1104110519594549
-0.04440227584849073	-0.01710118991168783	0.03710836805007996	0.09890259821568909
-0.04282300723734559	-0.02802497685108125	0.03401634808576247	0.01505311258912327
-0.04193838822021633	-0.05151307854613203	0.06701841501766559	0.0008982373912197377
-0.02837735384642198	-0.04904397701127477	0.0205877291025891	0.006426112053084994
-0.01387581312221283	-0.03515666362928038	0.05505957010554427	-0.02060727298643978
-0.03321180213709608	-0.03152983075722315	0.05359004873361436	-0.02205035820396199
-0.03098851236827774	-0.025072863975199	0.08973207305681882	-0.00646984524388682
-0.005324044208475934	0.005236297590463908	0.02193339855614434	-0.03455246278550064
-0.002001980574144723	0.03516074593185187	-0.02116618784484165	-0.05413143058548911
0.008886939209525204	0.02142123844154947	-0.01186423468904254	-0.03501313783041774
0.04056197848998185	0.007600831758041381	0.01968227855183237	0.01446306142304187
0.0267742738041758	0.008877247067174264	0.004467955844285626	0.02328957754392087
0.001041837047986911	0.01751347448461674	-0.00802836398889167	0.02475400629958669
-0.01041591850417281	0.008131825244975778	-0.02893477950682618	0.01563207914806715
-0.02893914958178096	0.007956375811207244	-0.01845788444389081	-0.02982337614395124
-0.04147365499239581	0.006165700274491471	-0.005105118735880069	-0.04908398431969814
-0.02822888861633431	0.02393032487030304	-0.01274550080914882	-0.04927669133989424
-0.01177623308072827	0.02747323497514954	0.08139304956547849	-0.03105369260390485
-0.0164863142066312	0.03178543304865985	0.09695104882908093	-0.03110981447332451
-0.06868888434278728	0.02124086610460064	0.01274509900145113	-0.01261051529621731
-0.05337533930282522	0.02342806885369129	0.0128439542874821	0.0249698963286654
-0.01968019015924404	0.02921036447674662	-0.007233353273065382	0.03070069339612057
-0.01142508829970614	0.01465925665806178	-0.05335899010176746	0.01286115223458112
-0.01098143345819685	0.0008294325210504334	-0.1142362578449398	-0.0285070132674541
-0.003130595266533023	-0.01212225811619387	-0.09784519535450009	-0.04198817654462225
-0.003770782820541012	-0.01492473775145569	-0.07668686688220866	-0.04522362539669009
-0.08895820912870993	-0.02721205342957819	-0.07832940554230453	-0.04472573724856184
-0.07921048874249359	0.001973562285683825	-0.02555338774698067	0.01766997018512099
-0.02493391599206862	-0.02183797027603241	-0.007592762078894524	0.03962915823050146
0.01284365072467996	-0.03057467816435932	-0.07356321125483493	0.1165026978300246
0.02092603179095953	-0.02374930098501924	-0.08267560243506329	0.06130234515324273
0.02942337752603632	0.001516233403326813	-0.0537002531663032	0.02178795467460046
0.04072662794481176	0.02997843653601194	-0.02089580715408682	-0.002472935695550627
0.02031619452507836	0.02024218274146816	0.09326233587201568	0.0007582634859725147
-0.00822708799956043	-0.01524071458556929	0.1323638692417768	0.02299808191883691
0.01147118819956046	-0.02951668892721451	0.06567983929376835	0.03133465534136129
0.02895790772560456	-0.02414933335444786	0.06558919398834441	0.0216118930387898
0.02181662289699113	-0.02270241261068475	0.08876715705843495	0.01837416433358431
0.01374737954071941	-0.008647947675757843	0.03265191596150065	0.01679780769140366
0.01601079863554584	0.02116099065968222	0.01859822026288719	0.008387908464818258
0.01810124069961132	0.02372885478839223	0.04802479171623979	-0.01031018351350615
0.01722481546916768	0.04499861809086497	0.04471987414182953	-0.01624795563565524
0.02713072590982434	0.03848517596192461	0.02247344899766809	-0.05448017174829391
0.01569759400298608	-0.00770881579629754	0.02735979595906559	-0.06503024484163171
0.01423503080034502	-0.01895536978723351	-0.01696775012919392	-0.05809622474202204
0.02047682170122328	-0.01684226988846899	-0.04776129664743699	-0.04859321883225401
0.03178386441081546	-0.0005772616723637428	-0.0541711015741296	-0.02343008103468491
0.03176780712269432	0.01027520230833003	-0.05729248160587253	0.04434552171143803
0.03491117907458801	0.01320135335428511	0.02148255818685102	0.04526109532402986
0.03228128816165551	0.00304126255378892	0.02273450796150305	0.0417440149439228
0.03069043134682289	-0.001711219239865111	-0.0008566270515217105	0.04659256953075269
0.02797519574805978	-0.006127804741444372	-0.0005357237808465883	0.02632657834221432
0.03113717347504641	-0.01952678658516423	0.00935707643215886	-0.06401827192887526
0.02576017361073289	-0.02048810086305648	0.011803794226949	-0.1034090538642261
0.01679972756299573	-0.02006322783301568	-0.004745796883028074	-0.07124394888186479
0.001252779847130941	-0.02287811226805892	0.01180495367641164	-0.05086220856258124
-0.003579663151386668	-0.03479398002680225	0.01022015465244451	-0.02630408652106219
-0.01035682497109059	-0.03340000782978621	-0.04599759951251412	-0.01743115363334118
-0.003261727122132168	-0.009524662578926131	-0.08805066487762846	-0.004240064205824861
-0.005725657824784429	0.001067481780381573	-0.06705447122062125	0.02976484667054378
-0.01067565964046866	-0.02658590290297478	-0.03025007319826023	0.04713941018718623
0.01442315380776888	-0.02387344881147947	-0.1057605331045605	0.03399454719605779
0.03837052240118334	0.009733440156483959	-0.003801425632289216	0.003405707371041999
0.03972717284108618	0.02053137719947467	0.1231017098092499	0.004171323472310876
0.02889641717551689	0.0285534212382219	0.1461528652819624	0.01066183548989991
0.01908128313187514	0.02241531016450819	0.0758817185653778	0.003146851823664382
0.003112967248529085	-0.005334249808343804	-0.01517864596458314	0.000788253941736348
-0.005816329877035143	-0.01546209981805138	-0.04209075732719748	0.09421962621460393
-0.03360361274072587	0.004978171143277438	-0.01652579089882506	0.08315888357024975
-0.04091919605632215	0.03439492944697733	-0.007856649181266518	0.01555578102712536
-0.05640548215734027	0.0467613803181516	-0.05020995903771743	-0.02102371670292596
-0.06728025017344372	0.02432495680679473	0.005397282733562756	-0.04372578655831448
-0.02140075104935615	-0.001470155954178461	0.00305885354376547	-0.04223236782309166
-0.0267373815281467	-0.01882512887914765	-0.02898710722346888	-0.02723955236966577
-0.03403102580301769	-0.03288560425548955	-0.04502615624051124	0.02413306406330986
-0.00623023099688565	-0.02039602167302918	-0.0386856373621376	0.0302492096839138
0.009259177652339039	-0.01926007601927881	-0.04743001172106254	0.03380094323189661
0.01285761291174075	-0.001589511530194622	-0.08329572112772421	0.0258270692250877
0.005775724703650696	0.02500294688287238	-0.0602713619685792	-0.01844596067810918
-0.02672677305747403	0.02986367511642364	-0.02763445811448046	-0.04643630134655453
-0.03869080949467246	0.002815878932161781	0.01677568722747643	-0.0784503014667227
-0.05318513309814856	-0.002150092753002415	0.08772463192332247	-0.08447683252084086
-0.02272236279245943	0.02350934683742278	0.05355770215909445	-0.04144000929840668
0.01368172355904841	0.05038686681303402	0.04592858784544769	-0.002825933840751847
0.01821066561079452	0.04348087907638182	0.09253166560325797	0.04315959631413892
0.02303192485147661	0.03222912499287865	0.01606035910327281	0.05710190250615047
0.03353150900095594	0.04027821437761081	0.01076189793963201	0.05453162921416495
-0.01120430069072159	0.01565174331809024	0.02949168545074324	0.08888280940272222
-0.01457485630198803	0.005980907099412649	-0.009316693247026555	0.01880033367419399
-0.01201311403667583	-0.008822588578725898	-0.007777384813106742	0.008533281976746507
-0.03490510426772448	-0.03311247897201598	0.03120017887273124	0.02033640820735741
-0.05203205388556188	-0.05495107279760062	0.007392449722074001	0.005338672360625179
-0.02357788960406158	-0.07243641588351667	-0.05812991784547972	0.03395589746023619
-0.02669369970834184	-0.06632045366464212	-0.08841100769013988	0.07927328744465501
0.02008173186706731	-0.06351286252835506	-0.1155719533653217	0.0408749717764347
0.03279823477968773	-0.05177443472688648	-0.06290601255815387	0.0006016812644498212
0.01267429316464577	-0.01356606790516917	0.03286204499348967	-0.02752207293547796
0.005661357094446253	0.0172847731117871	0.1467491119751544	-0.03780688631337423
0.01609480794034367	0.06482666518063061	0.06112628581998056	-0.04339772582921008
0.02053795335041014	0.06586982209616458	0.04571801845605012	-0.02930328060237814
0.02227774939494391	0.07561570161564025	0.0258145032859197	-0.002005726217865658
0.005134280771120847	0.06591894775912895	-0.02173553707805346	0.009737748816576255
0.0009177370475621919	0.04604654944946734	-0.02226213653511623	0.005595621907964601
0.002951220786856282	0.01925429535860432	0.00865263226325561	0.01527143828542566
0.006188054352783502	0.002278591239125505	-0.004914287424314065	0.02819013799789792
0.02641757108518213	-0.003099532154248766	0.001347518609167596	0.01554884337917852
0.04888813853743447	-0.007377446192296765	0.009078814142570561	0.002197526782205851
0.04523064536448843	-0.01977473517174202	0.03728508581522945	-0.02394950941163953
0.03695061261011703	-0.04248019355535907	0.09608241734102467	-0.04255270118389989
0.02023687529438499	-0.03872724810498054	0.08496506806188425	-0.04473573250627493
0.03282565541142529	-0.0203182100130518	-0.01323842062066669	-0.02642803076129178
0.02194558316510679	-0.0358536509782589	-0.1162579935269895	-0.03910444180882448
-0.001640034563246138	-0.04137923385380319	-0.08997615877816566	-0.03230856625045318
-0.04275425408200302	-0.01943137120591477	-0.08175811120962077	-0.02130900683173696
-0.07480380163245628	-0.0124607921194477	-0.05516278342200205	0.04664807034752393
-0.08041468810707914	-0.01182496455510415	0.07546913608036397	0.05475993294851917
-0.1088526220933427	-0.02843952154901481	0.04803120394939848	0.04562528058979553
-0.07452263802513825	-0.02097602733883311	0.05519482028363484	0.05705470412146666
-0.05394779429303556	-0.01611920230397337	0.05044001759442255	0.05170296429601542
-0.04159130994421517	-0.002247520732125531	0.05461063506386673	0.002380409841020838
0.0001148838975045683	0.02020850378174322	-0.003913287233108321	-0.05671975064458548
0.02112808804198624	0.01843868628171306	-0.0265485713133678	-0.06323364735320393
0.03041596359957944	0.04511370185553634	-0.03935921832241728	-0.06453437728365914
0.03238827816749587	0.04603812805275181	-0.05354419118446931	-0.07525268132125106
0.03373675438228249	0.04549234988926394	-0.009874947629356267	-0.05489641777581018
0.03652753646787951	0.03541371141821402	-0.006147234745023328	-0.02429382640432582
0.03834295145173947	0.02122694072341043	-0.04200502860598532	-0.003388701161893376
0.04031834077644368	0.01910814193881282	0.04747110467026699	0.02425385063350136
0.02204577913314326	-0.01618616475959833	0.05514152738127331	-0.03184825337576767
0.01428929062604457	-0.03767040179895132	0.01116504967392954	-0.06459149279580428
0.01069122510290619	-0.02560164737800962	-0.003128410047533722	-0.03438999933321935
0.01878166370502135	-0.0183401991307774	-0.06369094647398621	-0.02111788067956641
0.02105103082030895	-0.02841011771564528	-0.06046644616519958	0.01348616647959788
0.03089145282719276	-0.03074632455033284	-0.06204708435184594	0.05544642166529532
0.0280654339795595	-0.01480712877892937	-0.0931436578159998	0.03055446081175813
0.02359913675388542	0.001507947425267383	-0.0811129547274044	-0.008424201149581327
0.0123917000215104	0.005713635445709114	-0.009249408804370259	-0.01423963059692063
0.005071011852548928	-0.003303540664099296	0.0585896014655132	-0.01499280284232791
0.01093642517853145	0.02012286105908603	0.07551250420620885	0.009991245510351248
0.01546941346286509	0.04898744380032901	0.09819515040837527	0.002794378571341432
0.01633628437704823	0.03466542028686159	0.05586845327546034	-0.0051872529869023
-0.004787795952132961	0.00235609996518659	0.03992523718845286	-0.02070535855858364
-0.006933658362319642	-0.03383271423054151	0.02843652304124579	-0.006550533145767852
0.01031524639414476	-0.03840844321442664	0.02791837315218638	0.0004154066312480088
-0.007986478750823391	-0.06988314914159821	0.02319350590624741	0.05109429850316238
-0.006000167330324992	-0.06724207795208773	0.02078499885751927	0.005324384284911094
0.008156564913301564	-0.02352926103773626	0.007284949893645437	0.0003708970594730606
-0.008784537992819247	0.007493885535944367	-0.07287943358559715	0.07421385539224828
-0.01236454532007483	0.07529475221615725	-0.06228707819206426	0.05944673147913544
-0.02447533064413639	0.111543112013812	-0.04423853930554422	0.003717156780082355
-0.01249595905628133	0.06907357673451796	-0.0376189551357371	0.01439340673173175
-0.01850432171606322	0.009489415776822722	0.01787772268368902	0.1150546751243259
-0.01462702524394581	-0.02825156766018228	0.004656858029208273	0.08277054603293087
-0.008898607208406415	-0.02885965166760851	-0.05072558349259454	0.02323693883547806
-0.00116416571959817	-0.02739180722070273	-0.1067020400671201	0.01095622419582663
-0.01086122496631225	-0.0298937122227881	0.03201790990357171	0.01734355379023842
-0.01572198073732497	-0.01144512357498183	0.1627406515101121	0.02944364410704163
-0.009833139292855949	0.02390699444567427	0.1745678136147721	0.0219665948614484
-0.01336300517939089	0.08971869218534015	0.06320241728895327	-0.008473342347783923
-0.03507630107911398	0.08401038561004488	-0.04234699859098309	-0.02505015880013054
-0.03820148087997811	0.02212717687047526	-0.06238865438188075	-0.004756728200761087
-0.004809498016987563	-0.008606132074023068	-0.04185076323557788	-0.006723703823973428
0.02681070198337492	-0.01335352717555989	0.01040775528739537	-0.008559055836451245
0.05345300578070925	-0.01679832044995873	0.07866933128834215	-0.006615249623450684
0.03691281845513296	-0.0562778946805754	0.08576666703843586	-0.01559666639746046
0.01754198750559501	-0.05451184876803813	0.04841033540535913	-0.01724410441910382
-0.001469103195610852	-0.04212523213750023	-0.01797154644994158	0.02958785648157742
0.0007101563099495668	0.01420180628734564	-0.09341879636776168	0.05169804426934016
0.009322707846872679	0.04851573067106237	-0.1193298259906168	0.03204319751689257
-0.02792443178735447	0.01642021065480527	-0.09837736335919615	0.00552944860456571
-0.03862982336663202	0.01706057368990786	-0.113771028369169	-0.0588872020971231
-0.02646897898345183	0.003370752868110906	-0.08668009701162815	-0.1495595565384026
-0.03738888912535612	-0.003084488575667912	-0.08478345557148449	-0.1531506933655967
-0.04883203882346024	-0.01431656700011416	-0.01465346159648496	-0.1221176391240355
-0.03480337335778837	-0.01082886646158115	0.05423123751758085	-0.07411705300215585
-0.02093232759955851	-0.02382323302559226	0.03501553318744571	-0.04339359155181892
-0.009954785131672755	-0.03950673296414355	0.06557819287293568	0.01130259179025594
0.00528854026508626	-0.03047044532082521	0.04210289078052039	0.02328761725040385
0.004472179478807437	-0.01974193008641855	0.0001322066035793468	0.02575492105948714
0.008373650351590167	-0.01619281740377824	0.01525945493803444	0.01212793602584095
0.01104462272139814	-0.01466104985896045	0.05490844191435671	0.02699940512011691
0.01924018024962751	0.005107250856014807	0.05728539312017572	0.03442410147805551
0.01221635391406577	-0.008206191319126099	0.01897967665947987	0.08397835795263819
0.0006435253369823525	-0.003617105958108703	-0.02409484703567595	0.05387155370182231
0.001425167897708654	0.003223611450945985	-0.05610782542868482	0.021623998554607
0.001445383105783896	0.01851113688913264	-0.06786867377248472	0.006713909758701508
0.005237883352741181	0.01184599422298156	-0.0237845415924243	-0.03534432541839375
0.01165894353840554	0.01138219082115259	-0.02358022702476501	-0.0769655554682661
0.007734175931611449	-0.01097538594203437	0.0414394307754949	-0.05717460958640667
0.01336613308804664	-0.02654944760382318	0.06264026194752242	-0.01772079593655927
0.0121795277653291	-0.04307450878095644	0.04623942595536854	0.004432984028106293
0.03330434420880963	-0.0691598010764702	0.04088994999011982	-0.0231407351762632
0.02668561673518609	-0.07364686808087929	-0.02430717894079707	-0.02181007345878168
0.01870178390269098	-0.05928586648507425	-0.04500167585663732	-0.00803373107866719
0.01148718252428272	-0.02562638389191976	0.006796456840768312	0.007518976431240539
-0.01807787093883294	0.04347179385159522	0.04480951294583387	0.03785289901781948
-0.01567540892061963	0.07500597272544045	0.07162366226261213	0.05207140706646011
0.01022234451439729	0.05594132959699843	0.04050969815826277	0.1293042061337757
0.00739505710898496	0.04880379397597073	0.04127402721570156	0.124999034089051
-0.004377476197565584	0.05346638396600107	0.006591766665568861	0.01766521335235171
0.00074241046699463	0.03664891577106642	-0.07051622786143474	-0.0172396008839905
0.00031691165134585	0.01197270324380047	-0.1390205414646717	-0.02340331602758892
-0.03617635385940554	0.03989480112517421	-0.2012165626654806	-0.03958190916242017
-0.03474464549025277	0.04366218628940963	-0.1521118448064744	-0.05025347485305166
-0.01631726789087004	0.02598477875120533	0.01434812310564798	-0.04967626834300431
-0.001815490475177566	0.01486416062787494	0.1426793801751641	-0.01017366166260223
0.01485496476250661	0.0005848575157391827	0.1752531158969043	0.01784002059980895
0.02624046079369183	0.0006794098143500163	0.1843362018739916	0.04865140594453814
0.01673659237628078	-0.01581439067521972	0.142784133248741	0.09333331485499154
0.02312653728341387	-0.01173420496693401	0.00154415823475419	0.08554209747376625
0.04052679541339624	0.007172904831964319	-0.01802764505113174	-0.03246621233096475
0.03816439754622467	0.06223234007704742	-0.05836551725121411	-0.1057098324972963
0.02619487520118147	0.0547572605131293	-0.04462974337682164	-0.06648174400303583
0.02866522989363497	0.001123726713543765	-0.02859444966778633	-0.02892135466636711
0.03623040318814289	-0.005065876162079329	-0.0295809072018858	-0.01994138982486283
0.02662313715502768	-0.002650132124211972	-0.05040590902036973	-0.0150053474169613
-0.001057271601134823	0.007677259909978073	-0.01770294742330334	0.080808943433758
-0.009701625297946813	0.01041303735474014	-0.07030513300482698	0.07395700052435003
-0.01585977964588955	0.01662726554162283	-0.09655197459988105	0.03878315149393649
-0.03656932548384974	0.006128360074754109	-0.06628130803444666	0.03130215830463652
-0.01730789311071138	-0.001099208938980932	0.1099823036794168	0.01523214942824841
0.005139926452976256	0.01245441581367541	0.1533328505743446	-0.02279995786706263
-0.00234255970943889	-0.0002718209451944098	0.03288281765250672	-0.07326944939443007
-0.01685592169444868	-0.0342760805311021	0.03011106542413122	-0.06058359572800216
-0.01322388194501804	-0.04747896213672403	-0.02361648543908352	-0.03895860134327356
-0.01476954507004906	-0.09962694152119918	-0.04077326532809643	-0.03995750212276543
-0.02139695132701894	-0.1075699446578936	-0.004774105286638952	-0.01106507503678085
-0.01785278702937772	-0.1163204934301318	0.01548326481371234	-0.005361800863385945
-0.04268915526291941	-0.1051460802307965	0.008585274641257783	-0.05816334853740536
-0.04222236768604436	-0.06155671295574651	-0.00207468263078481	-0.05924311922338805
-0.03742949122923873	0.002103281089949238	0.001754913938711815	-0.0135589774142681
-0.01663644212211185	0.05386389198204337	0.03756084600979191	0.02457671241396468
-0.031349365049303	0.1020635765139032	0.06280194481825055	0.04292608765550013
-0.02972821652120198	0.08709558891746147	0.01919989229586356	0.07650610883576807
-0.00266340257644721	0.0825908059184392	-0.03549115787447103	0.1254965397576271
-0.01313352849313637	0.05931670402111434	-0.04914149197252844	0.03680169241494365
-0.03250975574565253	0.0210563837268546	-0.04708127739164258	-0.002309566948989932
-0.02144455932049251	0.01360010491025475	-0.01800858450215569	0.002330629011302671
-0.001726187838938222	0.02846870418207589	-0.004972851828604048	-0.02243462595711522
0.0038355198949034	0.0152727754819786	-0.03013578760438331	-0.05420637157980751
-0.005746809635463822	-0.01654911566588871	-0.03332529306080187	-0.05859843160794933
0.001807960766757698	-0.03541111544762172	-0.02220705550713221	-0.0409416871282101
0.005572394002291926	-0.07302692848654208	0.03628932691311717	0.02595849514940786
-0.003534100393222362	-0.09107388333813338	0.05148815336723857	0.09724283280664509
0.002015118340656577	-0.0836887086071809	-0.003222416447307253	0.1198828097391058
0.02769754939343987	-0.0752787342221644	-0.02390833942104208	0.1727784419190584
0.06569557951977105	-0.02919062309015183	-0.03067584306694007	0.03061817745006848
0.06711309662772787	0.06361963527418282	-0.02976219457983985	-0.07124355632375551
0.05979946752665303	0.09772332754481412	-0.06390041681384624	-0.1217649712919057
0.04987420048955945	0.1132532877563606	-0.09032190788096815	-0.1059404048987299
0.04301401896770379	0.05723879602767577	-0.01382492100293706	-0.05677144074410508
0.02002389754752188	0.02297109528526961	0.07144096144760997	-0.01322348323101861
0.01034184737232514	0.01373521870261415	-0.02481085378562014	-0.001564754819872982
-1.543373219732463e-05	0.02093336005364242	0.01518820532813073	-0.02323700849108353
-0.006386699131915187	0.04125277171731393	0.1150608953521144	0.001942093353795826
-0.0005627932923070316	0.0493893276394298	0.03819273798238593	0.003404709531098271
0.01076170084740496	0.007719105982713001	0.007240208391175415	-0.008247675386433399
0.01253383341195177	-0.02227226902932282	-0.05478142120929576	0.00974423487148714
0.01007202834791873	-0.03315741850295546	0.0195382973357385	-0.01500660265266596
0.01128668176282494	-0.02105088321011587	-1.227300915951423e-05	-0.03085605678074109
-0.002867726773585054	-0.03102436212562015	-0.07463528217300991	-0.01165279260387781
-0.02179472029520816	-0.02673520855922677	-0.05559549742794909	-0.01002858491777177
-0.04965870757185735	-0.02390696173214035	-0.04036731275282993	-0.02403385975155127
-0.06489741532138175	-0.02274526651324017	0.01150701998679525	-0.02123881804759618
-0.03057937869995841	-0.03463715994399505	0.09530600381154811	0.006241363645528875
0.0008830625663777462	-0.01792523322776138	0.09258222499539498	0.01154142524885989
0.02358393854918489	-0.0175433501772116	0.03449992412671909	0.008306198639196186
0.04160752331990733	-0.01615077679027488	0.01690612864923345	0.04631965810856534
0.02565957941927126	-0.01912997541124247	0.03522979737694743	0.05616666339285564
0.00882639025962656	-0.02007643903660514	0.05329310760455101	0.03785564364353081
-0.01605967156665512	-0.0269603535200344	0.07030333618241567	0.078713364873447
-0.0148169745252334	-0.01811943765122516	0.05116332405351527	0.1233885787543892
-0.02278802639004347	0.002327142974914908	-0.01624925212466832	0.09978981143059054
-0.05258552631953298	0.03287796849464166	-0.0505580332526389	0.01051345768223301
-0.0461820887344898	0.03808146098092275	-0.04322497013398126	-0.08898591077358584
0.02117807313669564	0.03387394236549348	-0.02119687020985532	-0.1518668485355856
0.04291554097023948	0.00216131666347821	-0.04846484543736731	-0.1196466174363493
0.06492292312985123	-0.02321705272329515	-0.07939067557250024	-0.09091651600242888
0.05013693849017634	-0.03176957455261641	-0.07363358937973552	-0.06328351167557503
0.02506899988140851	-0.04929918641588711	-0.03099050528207066	-0.03383073723423194
0.01387614975913926	-0.03333729136342437	0.0543395421127135	1.732231833257439e-05
0.009784259587285387	-0.01784605704386957	0.0353998464498279	-0.001350032336019702
-0.02305713708620592	0.0001201566469293336	0.003080654704585296	-0.02469333521446715
-0.0404344079015424	0.04459694071504128	-0.004723345866271373	-0.02410360756002887
-0.08636108554706438	0.04407573777107725	-0.02057942814769672	0.0183734216057251
-0.08447675922463428	0.006572372588978904	0.02885018696677716	0.03836058732665931
-0.02868899501255367	0.01392278046703906	0.08541453304821972	0.05423524598568628
-0.01226137047005268	0.02664989573031762	0.02184403906125774	0.06180716146586826
-0.01639056389825001	0.02188227394389835	-0.06317153540374601	0.0383556076337594
-0.01689769485712659	0.02051950160570782	-0.08131644371648493	-0.02694089265046461
-0.003424859883471281	0.02128230532699808	-0.07237679427386136	-0.05486606063137436
0.01001326881697692	0.001478737956020817	0.004899637306365849	-0.02728906193450351
0.01943497875074587	0.01538138944998484	0.05960463954915823	-0.01304897313195793
0.01869116669915124	0.01054402175621365	0.01844650548370626	-0.007605016621737661
0.003386865826868154	-0.007450195178509335	-0.006154737949985655	0.02601646882186535
3.252523184557577e-05	-0.01301102571819354	-0.01372345471331232	0.01625752666931949
0.00571770453479143	-0.02230796228768528	-0.05616264482858997	-0.04271440814266905
0.01274255597382127	-0.03153348702453779	0.003559281962406773	0.00481138298566465
0.02312873849503629	-0.05481228305759411	0.006043487861983382	0.03301305822633508
0.01954413549034975	-0.05532309415049026	0.08638676262823644	0.03914916009273867
0.01685710308993535	-0.03690070452284558	0.05118917316828554	0.05335142933290647
0.002823165195193405	-0.04602468128522736	0.03244687073755013	0.05681380006583815
0.0001597843747214083	-0.03352292574658196	-0.007973790506471585	0.04505104315868116
0.00328632387848741	-0.005214411304307522	0.001532860778673349	0.04819112391438009
0.01295485735960183	0.1199030943806313	0.006049901714450659	0.04400820948493163
-0.006039389665325461	0.1363827495409543	-0.003322392272602824	0.02441622898173213
-0.03654841857584659	0.09831613612874819	-0.05883162856340048	0.00420330862750572
-0.04046179302728427	0.03757819020660372	-0.1140365720249718	0.01128320586484781
-0.04581174563852639	0.004441941003776309	-0.07725909748941752	-0.02058870667925136
-0.01020615969161826	-0.02265866526505606	-0.0317938801704296	-0.01671725602226378
0.01600745787106496	-0.01579285859077099	0.02739991310944847	0.06028553073508966
0.02193605485648409	0.001092300796810404	0.05594578678367805	0.001979847534249905
0.03007742737501086	0.03149627207274737	0.05670912299526094	-0.07774361769668013
0.02728043826508975	0.02433050204883016	0.01306610838412965	-0.04988717100830661
0.0228099014932998	-0.02634133504777006	-0.01391175160948206	0.001342832776862671
0.02358096969454012	-0.03569738009568287	-0.02563998697797045	0.007605644423930567
0.04502487242100066	-0.02701795357395287	0.02437418660808263	0.008523519843382704
0.04751267496747249	-0.006586222124609187	0.1138712775511138	0.0221878335969035
0.02481246637491983	-0.01695144324408827	0.05720821705400311	-0.005709068933211554
0.02366241899110614	0.01613325055613727	0.01929888305636402	-0.03310116288304987
0.02188580189292032	0.04553855687245154	0.001396104139635107	-0.01684467583734113
0.0367657959421223	0.06488689452621485	0.08194986919555651	0.002109339466157702
0.01810288753396191	0.04648838836567892	0.1154665978670625	-0.001826126079341114
0.03224813380818593	0.01610560931525681	-0.06950081274197284	0.0749306210113854
0.01956783066710271	0.003977319836071264	-0.05583493615675601	0.08098441701688801
0.001453963616227206	-0.0003603065036012715	-0.0253686579001438	0.02743627747620705
-0.01496162586772681	0.01568873841131801	-0.01632122684710315	-0.02587803449471024
-0.02509444516245071	-0.0133997968419511	-0.04425547917131718	-0.0340850188255381
-0.03449367148337486	-0.04173446642478888	-0.05758630042709034	-0.04500277687189298
-0.05754657753623649	-0.07160896736170944	-0.01865398950745843	-0.05219482195638684
-0.05364991851351113	-0.07435564433110509	0.03691138546314934	-0.03084196483606599
-0.03630650144829019	-0.05984661601282549	-0.008492010020253724	0.001270444418779758
-0.008792317084096847	-0.01109982469294823	-0.00332122996183351	-0.001337519108725949
0.004818983910294338	0.001084994878644961	-0.001016122018688769	0.009805574724704794
-0.009620081049536149	-0.01016218679783455	0.01627341330118799	0.01333828782767306
-0.01181338198048268	-0.01833772113469839	-0.02469490989485755	-0.02864068895012183
0.01333566348172199	-0.006616282477094965	-0.1166407093167774	-0.03580495419200421
0.01134461536851842	0.005591969308478299	-0.08618875882730924	-0.04094465887762141
-0.0331283892816614	0.01472605796925053	-0.05537914737148926	-0.01478959189263217
-0.08104909638231272	0.0166947027789572	-0.07331318637111858	0.01684426416521346
-0.04901043101776949	0.0004089460869797445	0.09161502589725122	0.02497283252652486
-0.02361736864985361	-0.009807055214189489	0.1320098820353074	0.01620700637746044
-0.02370705963735215	-0.01441350203360944	0.1079234405965703	0.006216229075497991
-0.002263808998048483	-0.0009709001438286931	0.08419743057548139	-0.03652962305438208
-0.01438143568365711	-0.01719115440612735	-0.03293079861996963	-0.07943829841022748
-0.03849538581469193	-0.0418217593782305	-0.05324997223734486	-0.05730192312724899
-0.007386991417403581	-0.02339391906028608	-0.02338009463303243	-0.009848413070072965
0.01459765475293149	-0.006347042673630596	0.01490568608059781	-0.01074713936393089
0.03037042306999906	-0.0100352711111844	-0.01093759998901147	-0.04722845341239539
0.01171293468333033	-0.001067268443523524	0.001957494691427265	-0.02267131761702435
0.006786635096752569	0.006570920144103924	0.01557494883412259	-0.009294781915932858
0.001396937350205764	0.02208136610425401	-0.01013017876809446	0.004172399998274961
0.0287736676683427	0.02254872313158757	-0.01848519212793251	0.008248249411235893
0.02501020460813217	0.0215379411593744	0.01330804942266329	-0.005933384241364341
0.005089180793742321	-0.009728738095263008	-0.02187251890136108	-0.002161489180887666
-0.009405440047943464	-0.02770422553811513	0.01621663629184935	0.01350140515106129
-0.01422827780230597	-0.01575086469227706	0.07279910817178015	0.0518550728418198
-0.02531124506831502	-0.010630429534812	0.07704334381114084	0.03226601742931351
-0.01504956676504796	0.00849163696243284	0.1036310878167024	-0.05195945059579196
0.03751002211852006	0.06340901748857988	0.02604031787756442	-0.05136860680967022
0.05431249341437376	0.06025986687073361	-0.06932732050931981	-0.03146229543543611
0.07011161003894037	0.04722800371006129	-0.1000339638104143	-0.03414205190640118
0.0617230330764152	0.02940026404793909	-0.08627307264387211	0.0214412565138884
0.03609453190433665	-0.002088464700432467	-0.05205580013182516	0.08223429160422877
0.01809880914594416	-0.01957141003608177	-0.08530397157701218	0.08547763880156954
-0.005466397568777565	-0.02813156937571884	-0.05164037572726091	0.1043340878196625
-0.02600262305277495	-0.02925081782635611	-0.04652129028750768	0.06031563950911056
-0.01357309653024717	-0.02590369707458801	0.02205347783466872	0.03978495209808174
-0.01092605880193175	-0.01405097848538176	0.06586412594558821	0.04793206501721523
-0.01270407327636451	-0.01085027691834785	0.09269955899431274	0.02749449252558525
-0.01038153291994642	0.0006087699769691032	-0.006841553122780081	0.01692568498268614
-0.02409337993548831	0.02959090879428754	0.0184356058471701	0.007570214654268343
0.003210884301205737	0.03526245678268404	-0.01893933367548692	-0.02769939955756743
0.01885413606791542	0.02355505166328499	-0.1407936920350021	-0.06676236673405696
0.01644296899434892	0.0253507972883739	-0.1270077261352526	-0.05014974674021169
0.02710741047982989	0.04717061117626321	-0.07741597499795352	-0.0400241812227777
0.009693037388294379	0.02478381107497584	-0.02927718077616566	-0.0367331253384483
-0.04021713571166233	0.001628440878027861	0.01237392898297958	-0.03940562526776416
-0.0383313951394878	-0.03506169354686238	0.06211070624325048	-0.02675079620225735
-0.04754530660361357	-0.06864293070777028	-0.01890026222733021	-0.01662068512501171
-0.008063529140863151	-0.07390701289600489	0.03261608897266166	0.009405776413426332
0.03000895885419002	-0.04699435397646815	0.09876965451770836	0.04045293527820821
0.02565887778691205	-0.01276050729271522	0.1683316846874941	0.02323704886076422
0.01863674358726003	-0.005551548361016441	0.1815106746959948	0.02962273102142023
0.03111979761659864	0.01583942163244254	0.1521518995577058	0.04726778362649422
-0.001326631996402161	0.02365009269861058	0.08082014265149089	0.03715490368041714
0.002484851207797867	0.02329436035685889	0.02178561493024224	0.07283071969626587
0.007867247702756803	0.04693328589635497	-0.01934647219515266	0.04633756822664135
-0.01149997832349941	0.0402510442975058	-0.03062209688636899	-0.01605856490781025
-0.05099877980093939	0.03821893006431847	-0.03528118713337144	-0.02872122497686746
-0.04359273889542803	0.03160235965033397	-0.03799963876878632	-0.03959222040575053
-0.03234108360934925	0.01939948525783456	-0.0563551142525523	-0.03975627325304593
-0.00887045116355409	0.009944315505194172	-0.05094877636887102	-0.03329067021643358
0.01095041875736979	-0.01707813683204876	-0.06346548289845252	-0.03710280334919886
0.01921880660966619	-0.03948769422796145	0.03062733794047028	-0.02918554620319871
0.003569299336040392	-0.05163326721094771	0.002510344898560842	-0.01343949787089694
-0.0147342980053782	-0.06918975867436555	-0.0498374359104141	0.01883513940689516
-0.008722969800286993	-0.05381882873911531	-0.06897272575774932	0.01501531027682605
0.01044503118006442	-0.02992578702084741	-0.05832295047935662	-0.01561629391613497
0.02444459097426567	0.005609247917014978	-0.04158611402915556	-0.03220652734949234
0.02419286810220233	0.003686236542296648	-0.02606980755592585	-0.003122608407189984
0.008188859340726459	-0.0005948038282074839	-0.004638909673354467	0.007046631751865581
0.01063269179245096	0.0235458321251164	-0.02736320077304589	0.05773816640096391
0.008991440569164736	0.01968954530062603	0.09823502132481185	0.1492387169979652
0.005163595883653356	0.002457136855570186	0.1838664127912262	0.1699023315610124
0.008324745499584906	-0.001658426464223657	0.05731961075856264	0.05823735343644898
0.01069086272414831	0.01226590817506827	0.01273287006628941	-0.0480808915021953
0.008183867915557596	0.03838936055521761	-0.03563239586357366	-0.09952912455105295
0.007204987022258735	0.0441594409468697	-0.06845760323355819	-0.1083891291356295
0.03039600092710587	0.01456033398811346	-0.09572193559034178	-0.08672376137549204
0.03892263265785206	-0.004237543426105208	-0.08041219404798609	-0.06134846906123428
0.043688561456514	-0.0004875662812851547	-0.02748187056477635	-0.06294945651915464
0.05735815166289409	0.001775502288205119	-0.02149264311019782	-0.1028357608129945
0.02188342023748302	0.01448230836024095	0.0005193951455397584	0.009783093935291969
0.002971633539440179	0.00593782765106002	0.07830712055342405	0.1326299286872266
0.001020325728098207	0.02301579394941068	-0.001078019282797395	0.03042161754741194
-0.0245416946993425	0.0265151183025176	-0.06995981519757215	0.01322754951452333
-0.05012345119065736	-0.009098019155693053	-0.04879338870131324	0.01111570007356523
-0.08388454496054683	-0.01685438333440316	-0.06203994910247652	0.01860819021646212
-0.0806084818610542	-0.01390445248311963	-0.06960615160328347	0.01659371224798514
-0.07664023731284092	-0.02165777305861693	-0.1078163497015436	0.04967982814861491
-0.04743888999250933	-0.01725217844677311	-0.0940010191201274	0.05079010797922469
0.0009754569494156585	-0.0109949183899928	0.05265754718815649	0.02829657214004124
0.003714608785903425	0.003707344266897372	0.2491464682972586	-0.005632514015577439
0.006570806683177105	0.03041028615208423	0.2691183758284112	-0.03730097189158725
0.01260161397550454	0.03024915173268781	0.1828552165401732	-0.05994801921941185
0.03321532940514806	0.003289794356452703	0.05379582241860923	-0.06584708563955007
0.01689971606640971	-0.02415182269578346	-0.01124238535525584	-0.04101287890976051
0.02402053536705306	-0.01463118456971956	-0.03598321612729065	-0.03468327023012348
0.04808930618589162	-0.0173109613407467	-0.01165962755903061	-0.05558870214506278
0.01319697539281092	-0.01992523063711312	-0.01954958117743301	-0.03513461100496176
-0.003115562159816587	-0.02366636367744129	-0.007417646810987303	0.02864678050015556
-0.02945844067281846	-0.02856142222645581	0.03052508638212574	0.032776439367755
-0.01846183789629004	-0.02492397060133265	-0.001674109088861107	0.02191273095350514
-0.02421026461003262	-0.01424706780331224	-0.01448984280117908	0.01803784285169707
-0.05556665350505018	0.0001299537869255815	-0.02521910679385751	0.05611171746120383
-0.0303453842394835	-0.002033241660053193	-0.02902027685356407	0.05937185044601311
0.001044884781576255	-0.0222440123296703	-0.0161944375016257	0.04493091933957714
-0.0008396948717370329	-0.0171793455203478	-0.04041462174147552	0.009297256545124463
0.002909577307086255	0.00553559440461484	-0.02510165436857982	-0.01913967269792313
0.00230627366676654	0.01403107327898827	-0.07129325177021946	-0.01190960199353564
0.008480587762217275	0.01464798249531892	-0.09719303434651833	0.002834503989428232
-4.669823822955077e-05	0.04633420331989471	-0.06045118287725995	0.003759615678413454
-0.006999960458039247	0.07419270531718151	-0.03720034646573088	-0.04619840861838793
-0.01449947358464239	0.02883957524779456	-0.01305472558875654	-0.06311914228776125
-0.021127895683159	0.002433859526751992	0.04256642730534427	-0.09555007923059224
-0.02158419288003926	0.001226011903931319	0.0369515736171811	-0.06103382752766993
-0.00310898568277812	0.003525395930331944	-0.006211534178722567	-0.03425684993272565
0.01206140109369963	0.004997168165246826	0.0154804597414508	0.0009565802927777911
0.007833510718332277	0.003591233336646823	0.01130080391074936	0.01291838168565402
0.000928758118225006	0.001629989555496635	0.001483899956736037	0.02829088557321263
-0.00596198174779403	0.001634843779234347	-0.01057294630369178	0.05330363051275128
-0.00343124715628807	-0.001981414318757565	-0.004171104873400054	0.05866715762663868
0.006442447266425226	0.007552033523202502	0.0001937045298761779	0.04699063711428183
0.01612721595444792	0.009631073250404803	0.02452842610278196	0.03234310524731778
0.02397810377198148	0.002343436746767602	-0.009291920572577519	-0.02142426634164234
0.01736742903063362	-0.0178577384783955	0.03558831495419747	-0.04578090737796855
0.01320491677855707	-0.007233283911316884	-0.024666438580704	-0.04662720485818542
0.004984489986133846	-0.0006258067094146588	-0.08012990838601848	-0.04902393400635862
0.01295920631474853	-0.008183544050956741	-0.1056182802911177	-0.05154581442299325
0.01988523041985085	0.004566775159681832	-0.09352199261791824	-0.06130344048496342
0.01444771031447519	-0.007221741535174193	-0.08243777248470335	-0.05062100473721153
0.01141914182326493	-0.01199459748043267	-0.06319022697997831	-0.02257754190027304
0.01631085236207516	-0.01791265157869161	-0.02819443945621847	0.01728345148929529
0.02739517254308763	-0.04066027218005208	0.08780884633056968	0.1765773926827016
0.02106843844033377	-0.05035795714367728	0.1963461294822607	0.1494212978345089
0.03280614640810727	-0.04916045332255563	0.1590047463391731	0.09551323040510855
0.02653017486206442	-0.06864106371694216	0.1650257563044312	0.07914182602180234
0.01882678683458423	-0.04513477689750967	0.0503830502090571	0.03488731733126153
0.03105007823568072	-0.0116892531733821	0.009794778149040822	-0.01778139675065023
0.009304405256698569	-0.001346308119259764	-0.02157441602703318	-0.029178473418745
0.008369586971564792	0.01356787098789892	-0.008844386046573328	-0.04363525563967883
0.01827769738107719	0.08791019997250404	0.05076591643211932	-0.03793714167902364
0.02001660476168613	0.1012221610548853	0.08409253896015317	-0.02629114522381384
-0.008018075769503757	0.07753402056881302	0.04497603971474196	-0.02674799015622362
-0.02549150578440438	0.06013137666646093	0.06493534294975346	-0.0002978290478989002
-0.02799469898980066	0.04483442841930175	0.0175703481894113	0.0332466573681865
-0.02215989215673814	0.03356419365004427	0.01092951361412896	0.03913415209528246
-0.03817794410113956	0.01767710702062316	-0.03615934719970031	0.05642658724579264
-0.03251721981534624	-0.004464893867392487	-0.06773071899165825	0.07878014390354358
-0.01761143689790162	-0.02543721368468727	-0.1016398322550632	0.06003640361025976
0.01477868025065882	-0.02234442101676291	-0.1018170366786234	-0.0188210346794795
0.002715887109337637	-0.03348218056936134	-0.08106657203312481	-0.06625194148330973
-0.007207863428494466	-0.06000963632869977	-0.05733952427399615	-0.0142279370444742
-0.003398893027054525	-0.06645882807637282	-0.05615667786735051	-0.008079531157982416
-0.003577683156318339	-0.06201569384838378	0.03965718079405411	-0.05249010874891408
-0.01153855870894701	-0.04982810175390001	0.05447678485171976	-0.06612369319680209
-0.008776761523907025	-0.04656547161721425	0.01127635358942395	-0.04837872366080867
0.01041491382844874	-0.03499792724755792	0.03129176632021206	-0.03652891104659511
0.008110968768824329	-0.02604233470765952	0.1414619391090641	-0.02934176030109527
-0.01548885771051027	-0.02034613602987881	0.05888565879968567	-0.04571793259822563
-0.03287859782183419	0.008217915144801437	0.02094519321664735	-0.04048671176376262
-0.01987847457531909	0.01734098386082119	-0.01344214445951455	-0.03139997076209136
0.002029418835732836	0.02560981312469274	0.01914395129433751	-0.0210766306103213
0.01877763132596027	0.05123323703897035	-0.03820765734924294	-0.01279867137101557
0.03647019659040843	0.05289191707871371	-0.06423239842221021	0.01234955330415686
0.0312827539561352	0.04899413883491121	-0.06963240135236527	0.04887613307973394
0.03138776736427086	0.06026065777696172	-0.04032019713369711	0.05754917073756427
0.03516976490685823	0.04465121477189855	-0.03659247079462451	0.03555987764896992
0.02520231001988373	0.007375049135575878	-0.05417370204270808	0.04030566572201902
0.01106454094376104	-0.02493979251568087	-0.06858097709484591	0.06570929746572785
0.01007418784089872	-0.03708846037278608	0.01953554833536891	0.06246506234908569
-0.02360472292747712	-0.01733442276584101	0.06250537691504496	0.001864368007470325
-0.04078072705260329	-0.02053698835461282	0.03723010598343979	-0.00251265749996307
-0.043051900985011	-0.016918570675229	-0.008133959872371688	-0.01464709069387488
-0.05466580274593461	-0.008636523248349633	-0.02673299791240241	-0.03795936033757188
-0.02253311666115533	-0.001236208844520347	-0.01227744997903438	-0.06531807671440779
-0.02107945629822913	0.009667818897378491	0.03779217934449196	-0.01269191474562634
-0.01309704184654964	0.01962598876622	-0.004097532719570859	-0.04127003429900741
-0.009920361530516291	0.04793659725215612	-0.03819205129326159	-0.03207493952715677
-0.01508680199170207	0.07676676818887583	-0.05004803524209021	-0.001446560971540081
-0.05222266859924132	0.05113137705778575	-0.06350954745624611	-0.006087629878571152
-0.09574981619274599	0.04019484920647192	-0.05862576261572168	-0.0003553996637933681
-0.1186318693561935	0.02770817545858316	0.06114134018402095	0.002820064444303597
-0.08885090167746135	-0.01009569506811358	0.04124981127855958	-0.03614746533278325
-0.02013526233312137	-0.03495737875328145	-0.01664109380269456	-0.06456067389660988
0.03663323180497464	-0.04495497555328217	-0.04680485618401622	-0.04836952957042607
0.04916766407217946	-0.0257002319073013	-0.03126523631085235	-0.02668292530001042
0.05622274153272049	-0.001324260411426344	-0.004062969174781945	-0.009899060978629103
0.04648517471884855	0.0254179786121418	0.01404341388340179	0.01762836820096619
0.01365820640806539	0.009307577813474461	0.03455357991052445	0.1091120674305554
0.002612208811343767	-0.008270756741233173	0.08749445856724913	0.08207366685791713
0.01035219816836656	0.002864283702062731	0.04872394974870199	0.005043972332133692
0.01138850117440721	-0.009099424641878389	0.02061318266838954	0.005441459769777771
0.01039487232876173	-0.02598332538935577	-0.0385210260141676	0.006117375433044182
0.03153206121386223	-0.02997456990906609	-0.102273463115751	-0.002060627949002188
0.03219376595874068	-0.03593673201009011	-0.1152432335159533	-0.01922971869811961
-0.002419070753697895	-0.04708120834754934	-0.05705485365526979	-0.005743050081719073
0.02379168942626864	-0.03283147749181187	0.07472438134085087	0.02496582232633972
0.02532874056490069	-0.01468788172677401	0.04201118873506228	0.05266841418859686
0.02658989192671608	-0.0001010664205437763	-0.03631328795316522	0.007620758691678368
0.03165779743106108	-0.01059058987329425	-0.04272358901637802	-0.002517450331496965
0.0326186961740137	-0.01241175486896897	0.05884775025032311	0.01431429538658063
0.0376368953959112	-0.008234500874258687	0.09584745227038152	0.02136538658230868
0.02893544087322453	-0.007191136005297417	0.1237139378717796	0.03284412270628381
0.03017659492477718	0.003415674961275384	0.09076510248391084	0.03482287537244354
0.02407096772190134	0.03429084236779487	0.02654341631694237	0.02193080598642824
0.01396377425460298	0.063309608152812	-0.001503666394671778	0.00585577803829074
0.01416568297061775	0.05373883989705692	0.005568477531014412	0.05037679167236826
0.02800557478345239	0.01840112279988026	0.02554234554394887	0.07688853272402202
0.0255001315026875	0.0005293029782558037	0.04684405638292079	0.1045908678534862
0.02179401022918038	-0.01089733006751754	0.05067978011552688	0.08595667356210472
0.01532699981665444	-0.01807310215227035	0.06562889963238625	0.05424362975382456
-0.001290103129732933	-0.02748126889344022	0.02375814218355975	-0.01824897959321697
-0.02067585886880019	-0.04095951636695036	-0.07216495167466974	-0.1083815263658634
-0.03023436589743811	-0.04625300884956108	-0.06621141038082588	-0.1642536458925922
-0.02161744141711459	-0.0227402303713503	-0.03998240844865409	-0.1265202470746091
-0.03399861495731998	-0.01839538336387356	0.07577955577526768	-0.09679039244113422
-0.02330702102577037	-0.001253255009369835	0.02546509236573179	-0.09004705840627289
-0.003414972752332453	-0.01224411924740332	-0.001064246937103129	-0.1020443541977799
0.01193410708406178	-0.005753920838196916	-0.02926508069217732	-0.1060835381110189
0.02204381932191309	0.02190527409094264	-0.01125645977258866	-0.02673896653911605
0.01100457541126518	0.02152008835657727	-0.05809433516413336	0.07437168280250574
-0.001773525073486782	-0.006140545287758462	-0.07542583524198329	0.03964764003107739
-0.01044267292166802	-0.01639182758516052	0.02997174460666016	-0.007249354085561046
-0.001851377093823183	-0.0213661819564655	0.02241826637959091	0.002088622921105622
-0.001367114144927271	-0.003219100899545591	-0.03247989841383753	0.04166475067746086
-0.0006704948829061635	0.02019655752614876	-0.03346886713526519	0.0526607935519806
0.001354891664234619	0.05312174800039225	-0.004164421639365696	0.04066500444836233
-0.002766947278002323	0.05241402448345826	0.02953324311959328	0.09185112128715917
0.0005509430166053807	0.01735663410346798	0.02843631177772532	-0.02440351294020602
0.01442252438698301	0.0191428352713277	-0.05321173397530893	-0.06087529783283962
0.01992961805443935	0.02076191531544816	-0.1167783220250107	-0.01402864571788021
0.009000669552401001	0.01992216012571481	-0.1016621726880904	-0.01096486166842936
-0.02389346817555828	0.01902284030962983	-0.09697641049679925	-0.03023209925212834
-0.05431101089417965	-0.01066256907253644	-0.04064976497748033	-0.01453070238296188
-0.04716773281937454	0.00311057163969882	0.2146021006344931	-0.0129962807602357
-0.01430981712714127	0.01459753893513481	0.1604632844010366	-0.001540064701957059
-0.01440865879440962	0.01484032845826637	0.0517987577426695	0.01610439117594446
-0.01177291430233461	0.005113301694597438	0.01845023528834596	0.03135067306716464
-0.01451685173099368	0.0151344946802076	-0.04919852032150018	0.008125427059186452
-0.01343549053169754	0.0369672918756159	-0.01473491654011942	0.0001401605860815211
0.01167455353586157	0.05475216003320248	0.02268029743325832	0.01102878739441822
0.03145943483736362	0.02961505057759894	-0.01126512932026074	0.01238066154286353
0.02345672170065031	0.00644251794131798	-0.04565529997660639	0.004580798576589053
-0.003890763868129951	-0.01276142573546171	-0.06610643610089946	-0.001847836993400691
-0.007275853444216581	-0.04649831026220506	0.002111548421853242	-0.007763141361770536
-0.00322638140103624	-0.0400061093700431	0.04231136507008594	0.005900481172216167
0.02156126530087347	-0.02762916211653726	0.04692300141561256	0.03167195123196336
0.02002942523022742	-0.02433185363970711	-0.01009997932962792	0.02282633420311276
0.002929071404734302	-0.03079820231221626	-0.005124863583460012	0.02386913679598213
-0.04160174323475292	-0.02736834810745615	-0.008834419791443051	0.02120110797856603
-0.06764504548608082	-0.02323542083498455	-0.01018693344069054	0.0001229731613154381
-0.07463744882173746	-0.01056822113278722	-0.01812896041102251	-0.009052310387398899
-0.1027737981928596	0.006607533404653466	-0.0425467450667784	-0.00397513691605255
-0.1060369313231854	0.009262549728323364	-0.0498022317050725	0.008902608958176206
-0.07045740124353671	0.005746298497897183	-0.01574845335038574	0.02886307250850554
-0.034597925236695	0.004980242376179553	0.03377031915364735	0.0398970212646383
-0.007401505942182648	0.001911141858395189	0.04473146915100237	0.03810742449201351
0.006084179650669812	-0.01513079865490895	-0.04372525412866959	0.02080922984733071
0.01364269044364883	-0.01912705043203846	-0.1235619853925125	-0.005331826418613276
0.0217663733240448	-0.008134782076858561	-0.1146175227088273	-0.01076790322628982
0.03305753776642026	-0.02861787172475379	-0.008702406275814081	-0.002448647295535639
0.04081293418665834	-0.02837872235168711	0.07170701027703294	0.02031732784144868
0.04055344257586251	-0.02698067259115548	0.06776656179433811	-0.01469508674696603
0.05750523535970511	-0.009119935721072243	-4.150418545503971e-05	-0.05193762905007011
0.0538018055512773	-0.01695865054659546	0.01206655786579528	-0.03513720551541626
0.06157031024039621	-0.02187835763827117	0.0222280856028267	-0.02158855465717035
0.05620232844251077	-0.01490763431370885	0.003442880363370151	-0.0286600243695903
0.0394257527900671	-0.01019445336520275	0.004807246854245694	-0.008822806682991039
0.02727508372510254	-0.0328002540351926	0.0101326882705808	0.02621019150758634
0.04925272934887408	-0.02635961272858368	-0.02905478955040965	0.02184727681714484
0.04083993216777672	0.01095898691301147	-0.05693665002215842	0.002965809912821638
0.01693586989338653	0.05185907403112239	0.03395531173033982	-0.001006767927546718
-0.01496434024652451	0.06335094804388347	0.01721083955826224	0.03935634588297965
-0.04333005662538828	0.03149024681445439	0.02423635958846876	0.06991829400087408
-0.05030952760696922	0.01298300385533577	0.1181142703788794	0.03596236184853747
-0.05638394012591774	-0.004334885386882107	0.1168151956308397	-0.01694268547942917
-0.03900018274866759	-0.02430613034099743	0.01993265398839439	-0.04695965936867957
-0.01426075331929877	-0.02510942159496011	-0.02307698234588669	-0.08010023717752619
0.007815430210169562	-0.03318732702612504	-0.01844416669194211	-0.06057725004933726
0.02139244139704915	-0.04114389223731899	-0.01254255932921081	-0.02592254331997552
0.01975083853123119	-0.01963251890180606	-0.03822793956095791	-0.007236206804889386
0.02395354742445005	0.04327782719698952	-0.03720505390387362	-0.02566237355365836
0.03628788291232342	0.08733261564760664	-0.06911081402758831	-0.01532179465594914
0.01721377604539145	0.05780738487991502	-0.09202177711629311	-0.02712902958634798
0.01936652627765215	0.04241099729363237	-0.1151278988195267	-0.03954252051959716
0.03043719759688295	0.06610159484283686	-0.06780169482210591	-0.02413861731592171
0.03046720204428562	0.05851388948760854	-0.005004738457610763	0.02462719663004966
0.04284026140240695	0.02912782045336371	0.03207041310536216	0.001089953053425475
0.0380853085131	-0.01815504077060278	-0.01449498614446809	-0.00792435410750264
0.03818444853427841	0.0007789156582920978	0.0629412433404096	-0.00779748638788226
0.009338597005347367	0.01359269378198877	0.08373121300662878	0.02657947408232464
-0.01231682785197142	0.006686644871136752	0.1050794232666849	0.06860701635696417
-0.001326928441646653	0.009298486267999178	0.150515589659819	0.1709525342516402
-0.0233602514091826	0.01102804011049633	0.1154945413043256	0.1252677452203278
-0.03592778239876836	0.000571497355714305	0.1326674251933871	0.08923362000331077
-0.06031319954799969	-0.004360607122498536	0.1061949560230295	0.06998770066829282
-0.08986329118637386	-0.03241072594351911	0.05021730338720051	-0.003099471070472642
-0.08975355976234027	-0.0403928448713901	0.04302763809500361	-0.06579477766232386
-0.04650222213585058	-0.04749150777025568	-0.03885971123028095	-0.1212913724722742
-0.01730647414755888	-0.03090141973747905	-0.04688346905325712	-0.1270974526073871
0.01151830968173746	-0.01516066170302491	-0.07343398060540141	-0.1024357414995502
0.05222992815119484	0.003678579026560435	-0.1741493336590868	-0.06708453045742707
0.03633010123457076	-0.004591775759507624	-0.1660957174029241	-0.02826031121528616
0.02642726799066259	-0.01088815882103416	-0.1115941699493855	-0.01664087903650418
0.03776661066025176	-0.0140994450489352	-0.05189751960836542	-0.02432015375458695
0.03333088017386276	-0.02799783973668663	0.02797005914865649	0.008762922046554298
0.01655868736310899	-0.0207125971820623	0.1285570254151701	-0.006297231602334299
0.006467440705731162	-0.003417267753993108	0.07080931913951453	-0.0104527634037803
-0.001746926112234261	0.003244035700644495	0.0008228756474509666	0.001055216239807991
-0.03485559027274849	-0.002040569054174623	-0.06937295606621867	0.009803547084429483
-0.05618130882978883	0.0001885218801683633	-0.07197307662565836	0.02004435527384589
-0.05500032203783326	0.01494520408992886	-0.07131154649593778	0.009584088847840228
-0.04088350476584243	0.001351780513105949	-0.05390975401036261	-0.0216139027698364
-0.02174089251506247	-0.02105988434186135	0.05315596116391239	-0.07273572814414664
-0.007660299010689971	-0.01412631862131981	0.09294568981268903	-0.06757262111153969
0.005084194790407721	-0.0006468552380975757	0.01133461406868689	-0.02256095144662179
0.01411208910678009	0.01207739518932705	-0.009125024003142006	0.008093384276687507
0.02304808039676485	-0.001059528010810275	-0.08545011109062595	0.03627929363584121
0.03418960104606294	-0.01601104263106837	-0.09731060467810944	0.08031068800267809
0.03885277571526854	-0.01406082938779606	-0.04999502779097612	0.114565155467995
0.04977605323778988	-0.01627025630584615	-0.002390377167895833	-0.04456162354262798
0.04221763940166345	-0.02043449406202515	0.03317596621185537	0.005636629160820485
0.02569067398873533	-0.001980436853498403	-0.005736042057689903	0.03674559006125619
0.01665297933700911	0.03345078903632444	-0.07157383136985938	0.05032848812136811
0.003162261312802454	0.06131183850438375	0.03265282211447671	0.02706116419881982
-0.01048557975048591	0.05419174304898389	0.02695379789610904	0.0239055172058168
-0.04558586533408847	0.02906248135111118	0.1278632686278269	0.02139986947455286
-0.05457040153712102	0.008186491826108869	0.2808123123347008	0.01993175467858774
-0.06055408897572184	-0.009461463168240218	0.1669402669306919	0.02297092173570533
-0.05730266248662701	-0.04282898889165992	0.1331376346073263	0.01812199191544862
-0.0198268132892842	-0.05235853618231051	0.04329511350097848	0.004249847378197535
0.005654356011789204	-0.05669359221290705	-0.0465517844167801	0.004681853845362283
0.01377688555934809	-0.04540130609577839	-0.05866456100400552	-0.0050039693431071
0.01292129744881907	-0.003851549381144676	-0.08021096822534038	-0.01556708797423744
0.01325073821834456	0.02033325925204072	-0.09531764033003294	0.02183283573426597
0.01737949221272493	0.05011308444565881	-0.08220765197247434	0.01561938730291253
0.009400269538773078	0.02458262908112275	-0.06777843008954856	0.00464343360523374
0.01563292445679301	0.003105358906762722	-0.04615858539919037	0.01242617270378525
0.01832730257972311	0.001789083424332554	0.01394303537071436	0.02942123957390276
0.02011018664152833	0.0166016834963493	0.02356739420785781	0.03049720544062242
0.01236870005370349	0.07266008865855014	0.02343333950658839	0.01931064103718869
0.006331442114813352	0.0878375944185211	0.02666980401506843	0.005176348771254421
0.007535848065555154	0.06788921521097628	-0.0533916626004929	0.00934994508882704
-0.0009765353721796733	-0.01181079256056026	-0.03165239570506578	0.0481346744321167
-0.00421414498596022	-0.02467932149052346	-0.02473708597353882	0.06161212883179735
-0.007187878617271951	-0.05015621517879471	-3.18929148513912e-05	0.04791708304644601
0.02230500288904748	-0.06623360033588264	0.007776707989474349	0.02021675777364552
0.04579154437431758	-0.02549048849265883	-0.004699261119802494	-0.05448886787776093
0.04095678256859916	-0.009505245982880444	0.08673616091176499	-0.1190727250682481
0.02239044560019668	-0.025622610265813	0.09219932483759893	-0.1171840348802959
0.03141642127358052	-0.01888758995825077	0.01979521422143841	-0.08553148554135596
0.03907806212851227	-0.01500103272325569	-0.07172142761760507	-0.03662885697147861
0.03766695232597073	-0.007861164577710224	-0.1092939173388688	-0.04123226211360329
0.0405840283168158	0.01484265891345221	-0.111184790380315	-0.05759517250421568
0.04498102741017115	0.009721646545327572	-0.1189833078136059	-0.08107633412497661
0.02130322464368369	0.02444747535861754	-0.07531525833520729	-0.05014436695894334
-0.03258996669296384	0.03787538439937356	0.007364964196643996	-0.04873840560281124
-0.07846062620818382	0.01308450946576663	0.07226281226542736	-0.0383427363795359
-0.05309311395710614	0.01735255344138633	0.1227952328061129	0.02959349977096472
-0.05913692538446653	0.0156688001743426	0.1673513127760631	0.1229252504547992
-0.1094075565560077	-0.01755498136603021	0.1372356099455685	0.09372163314780856
-0.1080722407669597	-0.03234259178191706	0.05755133157944262	0.02044139273593945
-0.07963567860174117	-0.03349481478049164	-0.02283489052287366	-0.004305960816423037
-0.03178524108030031	-0.03549451534783021	-0.09669064762961962	0.0237138589396396
-0.00947970901591071	-0.02814598204943824	-0.1222110084259097	0.02312948074615262
-2.898840061362385e-05	-0.01101868152963899	-0.08613616922766751	0.06841214108224647
-0.005243746815445951	0.004182830822197145	-0.04951966513606185	0.03835769712680772
-0.008644048620596935	0.009479748039502949	0.100492435129411	-0.0244818537242192
-0.003865157796784717	0.01074509671756604	-0.01403822107547542	-0.01621524526564926
0.02660835955738572	0.01699625102498279	-0.08237495696165725	0.007565705032469594
0.03258595543120194	0.01668220122929063	-0.07290839860860908	-0.001744526772366722
0.01739465065116906	0.01292662982137646	-0.003873855822725378	0.09198240908676597
0.003141530742062801	0.01619513628064287	-0.0004969939518984195	0.1514446371917169
0.00612025683540283	0.03312761850555705	-0.01062707460789966	0.02575506794218891
0.002808790684548303	0.02789985567591426	0.0325115532100472	-0.06892173130778166
-0.01851875654731959	0.02188208590409618	0.0681554421908496	-0.1014111891828273
-0.04026527152865437	0.002819718812779575	0.0003643885820357368	-0.1591065935291911
-0.05556379608470532	-0.009093584089982881	-0.05711899595951976	-0.2222177677054625
-0.05096117257359801	0.01137308240341688	-0.06497495608080964	-0.1552400205398014
-0.0250862845237979	0.006250672436322365	-0.08376110756626835	0.04918933157558557
0.01361718151271808	-0.001342044799041411	-0.05163295505873886	0.113072570945106
0.01560380709475586	-0.033540953155935	0.03892030377226557	0.02195188307935191
0.001183432389730102	-0.06269217423412657	0.04854890816675152	-0.02643711853593284
0.005085748258193966	-0.05913231470310086	0.04459420526118704	-0.01138624838159895
0.03043579298163309	-0.0380157971602564	0.03444671866791896	0.03252428897091463
0.04080900641141613	-0.01914345743602945	-0.01434473938131328	0.03092326800825998
0.05612397149126529	0.01403727137861592	-0.01103892881899792	0.02333933488700551
0.05224303807851211	0.03001054941486033	0.01479512030882177	0.02769547098299966
0.05059624730973907	0.03226544935097818	-0.00133320882659696	0.02837678186012424
0.03421915180502858	0.0225413214582227	0.007564518780852631	0.01780378898307338
0.0223196733397352	0.006851113404798189	-0.001039406811426122	0.004157647858021245
0.02683990868271934	-0.006979960246597112	0.02235779719970728	-0.005551298911720587
0.02797262867554666	-0.001276560322169014	0.05472788128533922	0.03037046901487266
0.01784226150612057	-0.0003605667334953133	0.03435937431700233	0.03693137398395815
-0.004368451765256562	0.008576720901938815	-0.01847895956893716	0.04463296778143356
-0.004694145435253485	0.01990306494464252	-0.01104621028754036	0.03431498729079446
-0.004564473864803954	0.02362006017684808	0.01838923238437157	-0.003261377749185403
-0.005332032582275225	0.01406284005377696	0.02159878214678805	-0.030608507416483
0.001351977238375268	-0.001506487605233631	0.09015966377672585	-0.03096815631314836
0.006702523931300554	-0.0236643358291665	0.08591714229518124	-0.03973170399002694
-0.00385711403238928	-0.02855584829829787	0.04791727175134628	-0.0414656111171379
0.005330959656868599	-0.003789119864075096	0.009479739845092917	-0.0004966476984405085
0.006169937233049308	-0.004768268686735079	-0.04287324487749006	0.01299602860316014
-0.007486119536446446	-0.002562120479726818	-0.07503343819711777	-0.01257212117581699
-0.008619891222002437	0.0001219171910560988	-0.02829824031033437	-0.005769512308448094
0.0097660343268932	-0.006575300145953319	0.03492989484486725	0.01220311964305474
0.00794947258407702	-0.008733108566638665	0.02040442117027773	0.01130725216996896
0.00462840786453269	-0.004070488589235762	-0.04208813800171223	-0.002977011840289388
0.01808526199284565	0.006980499133247807	-0.08962649011540108	-0.01378789988497276
0.03434695110620114	0.01997587818709337	-0.0277696766469703	-0.02418250519341787
0.02512957489631268	0.01227751446293074	0.03844712006317537	0.01201855054618399
0.002976002983865374	-0.00579993575979096	0.03549473183274734	0.06554288925926387
-0.008716793194236796	-0.007186942196247046	0.008862540386422511	0.03068240064954504
0.009336339427776764	-0.009427672939265729	-0.0753271443931593	0.0157718522966064
0.0163567022643556	-0.009990509438042215	-0.1080214909768489	0.002330802779867128
0.03847143902216357	-0.01022565265426636	-0.02894008245292922	-0.01766829338551965
0.02159952434001837	-0.01892378761474379	0.1065699815526645	-0.04629149225166006
0.01649433473568516	-0.01112846069347585	0.1787851385325607	-0.03246218062285674
0.04382434018414225	0.02043190435919371	0.1724976348206954	-0.01723699617933742
0.003693124361010032	-0.005159538201931878	0.06989257748531238	0.03078710903013673
-0.02517958229812276	-0.05482812754962901	0.007918568225745395	0.1099919146058184
-0.01715738155268764	-0.05043648794527087	0.007942077403797983	0.0532593155117267
-0.02993704860725607	-0.04360166133968694	0.0007062325611941523	0.01918227121703031
-0.02898448921873256	-0.007839738305268467	-0.06431279909865847	0.01290713204123355
-0.03494744614040846	0.04677603773768933	-0.02288796244117342	0.00353971581339323
-0.06727495592356203	0.07497964265384999	-0.0244165587892928	0.01133024138634728
-0.107330690941382	0.04738360049393017	-0.01743771669521387	0.006790890258555101
-0.08077675985982423	0.03864575111526707	-0.01533973996043654	8.49132953921691e-05
-0.03481148898018832	0.04496496428774453	-0.04214693642798593	-0.0127691899884984
-0.008657718423042865	0.04220782476272333	-0.1060140371445374	0.004798989453158026
0.001123725072745506	0.03668238515198166	-0.1174858132559276	0.002255951902567759
0.006216860480604165	0.04714988328668154	-0.06221568623348182	-0.009879555425747637
0.01228035384999948	0.01550355148624777	0.04440591026930152	-0.01214993705254018
-0.001174322498045886	0.003621542947859562	0.09891623986844671	-0.01811283218638392
-0.00161154316164029	-0.01406541189865427	0.04479243218156211	-0.01297849381566294
-0.003753253247956096	-0.02199697693290616	-0.01256782276225896	-0.01185186726197848
-0.005917215770272739	-0.02264003084534086	0.05772725610130071	-0.02274703402302912
0.01151752745269383	-0.0215502418771964	0.05830772119170005	-0.03438575412280783
0.003402037685205865	-0.0289545733291022	0.004159723183792813	-0.04351144122007778
-0.01791004999094793	-0.02564137702354144	-0.02199254581737405	-0.02486530618178128
-0.02350996307605873	-0.03532194732530537	0.01364291221205692	0.03332541568607845
-0.02917908976590049	-0.04486612757775239	0.0229103390798642	0.04615263702365091
-0.00528445799713254	-0.04327012968346414	-0.02417259124027901	0.03657440903156147
0.007682828543914517	-0.0361800148634271	-0.04954889558772219	0.02807619023059606
0.00611923476944798	-0.03080010685443192	-0.01873476313178544	0.03992022341064328
-0.005489883999537239	-0.01678759187069462	-0.04226791931878598	0.05128335247070091
0.01150989543735806	0.00513026860084176	-0.06353860990922112	0.02456836043479789
0.0494481576503458	0.03374068002323892	-0.04490830201628188	-0.01893867092617117
0.05532506115573411	0.05656909171814532	-0.02408551797287568	-0.0356473609041783
0.05200281373706776	0.04862296376709072	-0.04994232287804383	-0.009065644868161738
0.06071698322323169	0.04975923301279717	-0.09276388051079026	-0.0766923773218085
0.06758542763487463	0.03377251144507042	-0.09990935263769986	-0.1083029084283895
0.04527694491394232	0.02073817086944816	-0.09191787285762124	-0.1015232009389733
0.02086179758502715	-0.005010777067371157	-0.02476689821854136	-0.05542145845187432
0.01044718205887846	-0.002599688022332059	0.07257660690575746	-0.01191499966345771
-0.0226483674379593	0.0008243737707620751	0.08413477126526289	0.001399675781515892
-0.06992465560770975	-0.004770584439820679	0.0886346525981241	0.007332746338383168
-0.08304981805675249	-0.001004292790555202	0.06230755542791022	0.02645860901957344
-0.06489621941566535	0.008943190922721306	0.05578365484293176	0.03052711752008885
-0.07203049843782858	-0.002867648891873381	0.03924989686204381	0.02278908307376164
-0.05181078243366951	-0.0005098950556040151	0.04109308164819661	0.02738450494969105
-0.008729610799320725	0.01634542925359818	0.04301988924331698	0.04002206238894382
0.0131408146404544	0.02596874933611937	-0.02357365173503915	0.05027235548658654
0.01196389823664263	0.001076665002450389	-0.01145473988709003	0.01919001288429795
0.01155604656714711	-0.03059653357124505	0.05020042139756103	-0.00235667602008479
0.02394789977070623	-0.04564194277234752	0.02742698087244636	0.02280815297852967
0.04903842658930714	-0.06011152600901279	0.008344078113472524	0.06692426027141157
0.05094340180483713	-0.06170573411541446	0.01009613490852921	0.05430297132816946
0.04548671634768114	-0.0633996239531717	0.01103432370676743	-0.0005031851198942299
0.06172002642331519	-0.04369652295982985	-0.0008802014685615951	-0.01784044785640822
0.08022831065898835	0.005839639766549006	0.01487854741156047	-0.04084248568021202
0.06006893748574852	0.0473298614969023	0.02841811894143921	-0.09661068487341636
0.02401927944540342	0.03689954647553512	-0.06075307023302352	-0.1536218233674713
0.003977871249694443	0.04872749717522654	-0.08141604640221677	-0.1568464972029382
-0.04583038921793037	0.03551756098231869	-0.02833578329531422	-0.09991923574715986
-0.09275682455882868	0.01891427533200331	-0.03343937606412504	-0.06024905147831522
-0.09128035449320977	0.01284553581511043	-0.05313875576167303	0.003341311159529724
-0.06659386772006719	0.007080223389500373	-0.06616932197087809	0.01192148967078874
-0.04843903966270813	0.01217363509981142	-0.02953693242744625	0.1053601687067963
-0.04683708625240095	0.01785077230980278	-0.005175369622650441	0.206148231093395
-0.0505839134503264	0.003232071237430495	0.03341723406210639	0.1103591352946192
0.06030307053378046	-0.05043190530379885	0.03500133265863493	-0.03132162619147539
0.04889560915934105	-0.06388423742651832	0.07794824597333075	-0.01587307079855917
0.0160754192465803	-0.05585848302861025	0.01833044371647551	-0.01016405288236108
0.02265576774196411	-0.03150267566637769	0.003109118670858124	0.00744055290361441
0.02417325058436165	0.001252905632353155	-0.01756609953573864	0.01724036355138624
0.02076138004127257	0.01010545497841506	-0.03279711781384033	-0.02637778385148215
0.03086634201939282	0.03547981621699467	-0.02267914257142838	-0.06983517423012034
0.009575403142447262	0.04004453047150161	-0.02137282246489502	-0.05287789696028902
0.002546465269502383	0.02117130720476654	-0.04046375942648781	-0.03349871365290117
-0.004017734490059707	0.02510506984514445	-0.06554665335375662	-0.01759084580216649
-0.03854316207860613	0.01435046392254412	0.02785357673168139	0.02418420181746406
-0.04231975723481721	0.004846830429857652	0.05644114448983288	0.03367075432808089
-0.0415012602789457	0.008960216754202671	0.03003658804905453	0.05829597471504629
-0.04798442793249631	0.01109905592871194	0.09566005388951938	0.05127316095835306
-0.05909008984219355	-0.01734658145907546	0.08006289153609621	0.05832666579981831
-0.06478377033591175	-0.01726589921878012	-0.01598831129904998	0.04362026342631242
-0.03456680726893017	-0.02273371192177917	-0.1246308941210281	0.01739489187578344
0.001354743544571392	-0.02280894435670256	-0.04562460535580574	0.02438825301133208
0.0119137145492102	-0.01569625462055178	-0.0860929195546416	4.918493319648669e-05
0.02207034214217971	-0.03218146101362507	0.01715680692946331	0.03147663345678677
0.02221864936501878	-0.02944195330548713	0.2229803375329757	0.0513924417913126
0.06616675939897887	0.003423831007979474	0.1753262145277853	0.01898463398532794
0.07340597956087815	0.008060308885483754	0.03844304354803924	-0.01456675270147663
0.08510613061223669	0.02206391751635043	-0.02850731037331714	-0.03906513683533815
0.08227183606304596	0.03660914387641853	-0.01042215523085212	-0.007041847121417599
0.03902458514637797	0.01452054147987685	-0.0474199557907295	-0.005205184968882421
0.02191283272145931	0.01334899969860426	-0.001088322829470832	-0.003943648370343989
0.01188083903099276	0.008985054374809365	0.09943749743093172	0.005410129689165995
-0.006687394567357474	0.005110733973247223	0.0672879163852807	0.02029302155204321
-0.03398866562053846	0.01129670951696175	-0.04671221368916403	0.05451423343023528
-0.05883342091323478	0.03214600030743472	-0.02584011035469147	0.03471757124964494
-0.04167529476079141	0.04605321282929297	0.02023622686198513	0.02790200763218703
-0.007144271560467721	0.01950613058405212	-0.008986351612142044	0.007694200267073531
-0.007046892083353522	-0.02224770530988295	0.01035184514765948	-0.0268429459258035
-0.003082878106807025	-0.03072170657501003	0.00641250214194242	-0.0321501183172305
0.002297420565500708	-0.01395547483311429	-0.01147554456155889	-0.03128863624087053
0.01091282198993382	-0.01058538426697061	-0.03521359498443391	-0.02502259285287591
0.01654816780224797	-0.008434165313283126	-0.002830694226690991	-0.0125537846817207
0.01989449166803322	-0.01880921152176337	-0.03735485540196497	-0.0438966710172136
0.01904117888850107	-0.01611849932494194	-0.03668775744644684	-0.05717421971141073
0.02487991297861665	0.001738554668765835	-0.04813436734469728	-0.06360795106401473
0.02164139086302347	0.006792644907882588	-0.1137086282783041	-0.04099949337696639
0.02097175483724075	-0.003683709487801906	-0.1062666671081621	-0.002392739178765897
0.01743219234862717	0.004365575356116875	-0.0888384166207076	0.02322176075918213
0.0003973718187676158	0.002214589426886341	-0.09957433991368241	0.04275172588185871
0.002578044555036666	-0.007941308108660412	-0.02968340866580777	0.05454475764173938
0.01172640842355959	-0.01835561488295942	0.1096595145040064	0.02805091998494842
0.02687403533671814	-0.002643864545473202	0.05182337965638113	0.002946065480287449
0.01844645608937988	0.001354012928254366	-0.04053387207597912	0.003002758001394096
0.009462912043571838	0.01634579790978278	-0.05292790447459033	-0.002158564987907933
-0.01108476592491084	0.002740811482194287	-0.08448110732704067	-0.0322424443984416
-0.00490105508725599	-0.005548101633978744	-0.06044455269683249	-0.04628196545487766
-0.01052109519844788	-0.007138997768406381	-0.008721417196007756	-0.0429124659198243
-0.04146509919174371	-0.03211960784882856	0.1268584859975554	-0.04556112961909561
-0.05562550550597541	-0.03542226073273416	0.172535613471775	-0.05237842139278844
-0.03467869995113521	-0.005767857467327284	0.06414002734078497	-0.04749732156330984
-0.006241998217449714	0.05373209387766351	-0.05798887588756063	-0.001809572698344701
-0.01294281298481376	0.04983263257234712	-0.06777202061557226	0.08255143674942403
0.04610020358902185	-0.01198195583281791	-0.08076706279307032	0.03529970304165416
-0.0005233075784745374	-0.005791224873608291	-0.03072652074381476	-0.01654365170037847
-0.02578328451323815	0.005489388844777491	0.09158435523766346	0.02966896451390766
-0.05384993492173832	0.0117790856964342	0.1039914488817403	0.05879642002271376
-0.0990429889759397	0.01751492097699578	0.08021887297885741	0.07620649029919185
-0.0914631889921972	0.02052641750053287	0.05002639299537653	0.07574155044072507
-0.04994709702699836	0.02194131181333381	-0.00307335419301568	0.01758384034514678
-0.001533469245937392	0.02677413334904946	-0.01774581440263901	0.003758037195063193
0.02229220309130472	0.02163851704394007	-0.007549699121833677	0.005282316338036113
0.0438316389512378	0.0279914402472987	0.0003043496362449806	-0.001039681321066504
0.0220938003523794	0.008555436158286068	0.01760317283867429	-0.02261896045763278
0.007569523271109982	-0.007034455082935645	-0.009021884879447771	-0.0695598738224604
0.01376333343903135	-0.006126660714152204	-0.01954436898821233	-0.06041974284563698
0.04643130497565279	-0.01345792857427551	0.05390486826345449	-0.04362004109070675
0.04092261517236188	-0.02473080063314011	0.04775869273200799	-0.009873854906647521
0.02791991406320119	-0.04106954480494044	0.03036668897046902	-0.01820252580793359
0.02492256604290559	-0.0332718229667994	0.06713520214548234	-0.0193474659385969
0.006274193575993903	-0.01419242674789164	0.03021973283155947	-0.01995152561499661
-0.04420734056321646	-0.0222462212238514	0.01030547887676693	-0.01786515023129653
-0.02936342467807342	-0.01179746871565156	-0.01553593959718801	0.006094072769519997
-0.01940835838558988	0.001804181678956532	-0.008762929499605372	0.04739390619376396
-0.004407879678988117	0.0004413106430375894	-0.02433155686683063	0.05218108307190986
-0.008795451308706667	-0.02556217191699873	-0.03082070371217939	0.0508324268316936
-0.0009839128125213347	-0.03275783664510228	-0.02059133516257594	0.0428607527079204
-0.002873808179106819	-0.01431903787887412	-0.01092588869868794	0.02681480017265556
-0.008965000723206591	0.0008094728331776474	-0.04556586986005192	-0.04760023619477863
-0.01444700290805371	0.006774041024105244	0.05102905244353831	-0.05400955922556361
-0.01204387864843483	0.03136033717386171	0.03003333180324701	-0.002195513187856388
0.0007613261218541077	0.06096616254749285	-0.01968881657478849	-0.011367014075075
0.001878148578545533	0.06161849099952834	-0.07527122031278433	-0.03732839837891939
0.01183314362316207	0.02104222458631979	-0.03061875484521909	0.02725740390548019
0.07402214814544242	-0.001741411694962275	-0.03813470905544063	0.06255623358364922
0.07369895882804942	-0.001956172646295766	-0.0249290880072714	0.04473530486514025
0.06167073295245178	-0.008356479104457224	-0.03517575601231589	-0.01204316726413858
0.03279219875976954	-0.009529921784182108	-0.01029198772663313	-0.04344640614874733
0.01372702442185583	-0.02084867825171076	0.07019757645843774	-0.04586307656330103
-0.002510334217038371	-0.02296598076763882	0.06031923873378647	-0.1316244322756756
-0.004414338404416653	-0.0120515934747578	0.08185494672670766	-0.1063707442111562
-0.03064460482790659	0.02003828922348737	0.04882366877729449	-0.01067901353811905
-0.06465901474247827	-0.008165079754630759	0.009980813844353568	0.04048914812823703
-0.04824778202415491	-0.006575162032724764	-0.1018422947972251	0.09477098648602764
-0.04060976140069123	-0.004036060759046277	-0.1439816595732255	0.09500295662815321
-0.02606448593164681	4.166248074775425e-05	-0.1514954622889829	0.01595049195502287
-0.001827102391994031	-0.0137482927909465	-0.1188267581488522	-0.003244938486403714
0.006849481489963115	-0.03545546234793195	-0.02156631393429156	-0.008231454959602313
0.006973917957167622	-0.03779796497614077	0.02376793329644915	-0.009314691087897526
-0.01195278592176581	-0.03248284871226007	0.125851285974416	-0.005884566646608656
-0.02307961379327375	-0.03321093811153489	0.1425863861242279	-0.02482920147302899
-0.02447371460554475	-0.01923236134393397	0.06521612899169532	-0.03799837734011009
-0.009248622576686943	-0.008406970739406961	0.05437672647450677	-0.03779433583637813
0.006044080361827734	-0.00441066689096237	0.0128558459671107	-0.03612836798604008
0.02275032293538561	-0.001574112781482201	-0.1496444357419896	-0.01849468895448884
0.02577417821349029	0.007637738652615413	-0.174927392388366	0.02037351818666102
0.009620487196728703	0.0007169587876348475	-0.1646979377675414	0.130976201160856
-0.009972076894652321	0.02480037308781687	-0.1247510509128566	0.09664550766490837
0.0008949543882186678	0.05477609771876776	-0.02866030648710976	0.03465658838999481
0.01487747243483379	0.04055654926055546	0.1679692585761483	-0.02725736192597879
0.004329318833924058	-0.005140505162158959	0.1866867351673716	-0.008376848255188189
-0.00151828644814315	-0.008343096323183327	0.1911677038376846	0.02216060486882948
0.01939651302959338	-0.000315944749469952	0.1040905593155681	0.01734648816058491
0.03514251045506188	0.0001707089829454102	0.1017140747137155	-6.085471009005094e-06
0.02585609505958742	0.0001782424384482906	0.03299010947748622	-0.005488479317812514
0.008365682365341503	0.01138692390622116	0.01030120889313484	0.00294330384508266
-0.0104923508371626	0.0238667296588794	0.0939591371485962	0.007469967188935845
-0.0008055902510698512	0.01526264464454221	0.06013405869699329	0.002899442305305887
-0.003491478649643641	-0.0004130197275405725	0.003252412756976704	-0.01403178199079838
0.004610169925419562	0.01449634450959921	-0.06162583488202918	-0.02931345611624935
0.01155186844805716	0.02303250676773473	-0.05137502752490296	-0.06386755376529893
0.0005063675703665308	0.0213046504599792	-0.04707589151953235	-0.06359222484001574
-0.008820243255991822	0.03139181775756806	-0.03644525096337914	0.008589336782682337
0.001782799560920648	0.0205982740268897	-0.0346460712430252	0.001775559199116552
-0.003199423245152452	0.01652959031818961	0.009241205453516302	0.004350470188038576
-0.0007193908784171876	0.009777646376385351	-0.001469867325476185	0.04066569722496145
0.007834205745730915	0.01232192978513259	-0.01129680536572522	0.06417992535060199
0.001530875811088611	0.009614775175334907	-0.01817810087750972	0.04545771839987632
0.01192426280176595	-0.01185029047179471	-0.03954285721223175	-0.006207699948113704
0.02166158290986613	-0.01196982177860171	-0.05994279440493978	-0.0206878474658803
-0.005011665239038167	-0.01527501421557353	-0.05118181052832979	-0.01095382187055037
-0.02447003349082406	-0.02523643613907647	-0.07994914881797961	-0.01245008763848711
-0.01145946868279974	-0.02552125397834382	-0.05711503719159219	-0.0339470535078072
0.007308045187721376	-0.01027678126714877	0.08939336069621306	-0.03279582755715914
0.006220030886966721	-0.007430114882381234	0.1487349544578769	-0.03233390657654255
0.003572582413226285	-0.001808482133459831	0.03809365334472233	-0.01334138743078907
0.01309834218642042	0.006062282791289907	0.03376114159905888	-0.006395193750113396
0.007688649085721634	-0.0014140811382776	0.001949092850790922	-0.02550187619288104
-0.002834647390459424	-0.01047807047863604	-0.01859009496166561	-0.01488561153075612
-0.005575620477136402	-0.02141397660577544	-0.06774490581413786	0.01373722463857945
-0.001488534354887284	-0.03198458410300085	-0.06170198742193313	0.02519150732475382
-0.003673404989222362	-0.02385145002938233	-0.05976373784169981	0.02646090508900801
-0.008193294206697592	-0.01863177498538857	-0.05110516844242809	0.0449365440310393
0.005029250711391531	0.006242753721592937	-0.07488835460851329	0.03348727458147897
0.01817203679848853	0.01594175508402027	-0.04187819038835305	-0.01224956380724745
0.008792563505015635	0.006231645532446194	-0.0333109203678255	-0.007957830483230644
0.002340153877070766	0.0007256048016296579	-0.04553196190953276	-0.001848236973682143
-0.00864198583705978	-0.00858813577345237	-0.04600925623598982	0.03328658026141185
-0.02796859679113177	-0.02717217923920359	-0.03003637007492697	0.04138799465138897
-0.03057842533774755	-0.02998804483400993	0.01304641201623899	0.02105151268665728
-0.02645343592950492	-0.02014485583157617	0.07660266033442614	0.02658796311036791
-0.0236097793114339	-0.008639822134748605	0.06097911553413256	0.02510246638873802
-0.02383477227958275	-0.005780513185772043	0.04672719046767219	-0.03242674811740362
-0.002328089924629695	0.01976866409016016	0.002824101143181501	-0.07313381130802638
0.006537369733929143	0.0198916771177854	-0.02129663663974212	-0.05930750728511615
0.02692035408954996	0.04347630337440986	-0.06203170869267578	-0.02021485932717237
0.03631358389912438	0.05142027324041901	-0.01056690443453227	-0.005681536355037006
0.02274219390526604	0.02525276878168528	-0.03530018080544485	-0.00252674789578644
0.003533272285678634	0.01521798282043921	0.02369241404724716	-0.007010940538985892
-0.007545934413718484	0.01547734565035118	0.1634201064771976	-0.001066556357214189
-0.01669907654947149	0.01911513790722202	0.1480533781243684	0.01481876461284471
-0.005538947606848802	0.01426750419567765	0.04512813843395029	0.01678770057579117
0.0003005734943773923	0.01409607284310093	0.03985271112248488	0.009396604550622587
-0.01662706068267881	-0.004368816549530074	0.06203389904978746	0.0167339010319598
-0.02144406926057003	-0.02420921975542915	0.03122591472010857	0.01170728250371134
-0.01687077874862003	-0.03749987279696021	-0.01936400851227746	0.006146747778998747
-0.01741367279736857	-0.04809240005107183	-0.0199368554991667	0.00765050013691073
-0.01018722506918739	-0.04165012305717285	-0.1104256158086732	-0.01307874819848881
-0.007384525223974715	-0.03273092584231696	-0.1355479942310756	-0.03099830766470061
-0.003574953249082172	-0.003402536883361776	-0.1224973752365128	-0.02385826584242695
0.01304395791982867	0.01117415110156324	-0.04435039635090478	-0.02942405369530726
0.02187674536562168	0.01895080914345403	0.01782691806284524	-0.02822508636503958
0.02923594391026537	0.01627269070450984	0.0740551755285956	-0.04518697838639297
0.02763546876989575	0.002557268808822974	-0.001656474174437115	-0.05202363028157134
0.03527223553586364	0.006089074832343066	-0.03017241360171749	-0.01795808787414301
0.04146689955701307	0.01416235359144283	0.1318719669329821	0.06022135294618945
0.02480992776826587	0.01792552963193087	0.1887517126227029	0.05267957014502364
0.02010438999768676	0.02212617190032761	0.09453534324935862	0.04648307565468295
0.01662170563817039	0.01704635897927928	0.1022766487936453	0.02684745160120342
-0.0004579738280657523	0.003078567143488046	0.05473925581303953	0.05956493301247683
-0.01741047553755084	-0.008751738500167559	0.03087240763742274	0.129684150400718
-0.02370170917857015	-0.01008530082768773	0.002657597866808949	0.05285248010883194
-0.02770191884755393	-0.03155354729117809	-0.02207728196111897	-0.009326866908849742
-0.04913687604774784	-0.04133732995202195	-0.05470867529390971	-0.02896773647218697
-0.0623271180910939	-0.03799578421580228	-0.06643419100178621	-0.03036198758923885
-0.03828715679898412	-0.02435725232743213	-0.03024951625776873	-0.02412142341143009
0.02772181935718179	0.00437573343938637	-0.03779496749268352	-0.0142757343811698
0.04615695328384226	0.01911473314331677	-0.02254500209767822	-0.01253643602477517
0.05201182012102969	0.02698592033103612	-0.001066920149101258	-0.0329241625510174
0.04473657709508186	0.02278568467457254	-0.04010514687234006	-0.03324760658219592
0.00481280673384294	0.02097187855467423	-0.07401221193868605	-0.02827335704349369
0.01313048948548072	0.02657022067895685	-0.05637691291862423	-0.01636736366690037
0.007842411839339394	0.03123579473042521	-0.01679168474449537	-0.007410989802288551
-0.01462212353680024	0.02088172158373933	-0.01187697220055286	0.01399270957736831
-0.05283768365668588	0.02117800461114127	-0.004517648744158533	0.01015290883433928
-0.05836320483495547	0.004295777359512863	-0.005464529432121645	0.008263034177112792
-0.05603885294578335	0.006861815273262585	-0.01524727706912762	0.01095839088559623
-0.1012042157541095	-0.05362465915530749	-0.03964258032102184	-0.01979181060427661
-0.0631586801413567	-0.04936614609562823	-0.0369130319825503	-0.02944393789604254
-0.01637203923736189	-0.02910179597438332	0.02776493622742058	-0.01895248429017135
-0.01340018571234599	-0.004744106545096678	0.02821407286331429	-0.004707675432023541
-0.01559435264910046	0.02044383721164117	-0.02021883634384021	0.002498286375767195
-0.02183518741940947	0.0174002106630106	-0.08365974939213741	0.02704133007259534
-0.01140712529798135	0.006863297241934369	-0.09076195815277398	0.02216967528458094
0.02307587672391513	0.0149208512552312	-0.0001694679496564851	0.03858610746725972
0.04561708565215951	0.02808197932075656	0.07088867796024345	0.04797802277967931
0.03574384441306075	0.04276045808662784	0.02136029315055699	0.02109742876922936
0.02864344408779264	0.04125365506531666	0.008134068985695759	-0.07988519788520551
0.02849737908473092	0.03414621152275189	0.02624529362444661	-0.1108578817313917
0.01966127678223061	0.003552384316495917	0.01956145291882359	-0.03289090610999525
0.01486113112219396	-0.01747732850080166	0.03401637933140336	-0.005576076735564209
0.02266526831899973	-0.01930206052731802	0.03224802522125113	-0.02275411422831089
0.02424541839540475	-0.03591469871238161	-0.07937518206405847	-0.01923597000696184
0.01960057164170164	-0.04362514040051466	-0.08124888719372565	0.03751902120808116
0.007943202916326827	-0.0476240415638791	-0.071010290058499	0.109885079524101
-0.006925046864520412	-0.04415945469757834	-0.03862218031180047	0.03325653993730506
0.009793887838408399	-0.00569183858364033	0.05261872929386361	-0.008233562526913056
0.03425292834357737	-0.006301920361963944	0.08532693773223253	0.02666916006660259
0.0143705229688415	-0.01942449205515256	0.02051003535432923	0.0254842499745364
-0.00049811668730202	-0.01156283517358405	0.04902175944053011	0.001718695625145982
-0.02586229189697196	-0.01219148865616581	0.03043782530532166	-0.02756106048339028
-0.01655163772760447	-0.01301834425310044	-0.07144726095377349	-0.02519665741849651
0.008533429679356828	-0.002588636569330265	-0.09812977093356313	0.0002289052799114579
0.01504371417904976	0.04383946330800007	-0.1336761393888155	-0.03108184618598993
-0.007015925038863975	0.0636135984279949	0.06857778346611032	-0.0422429081962131
0.008089955377124669	0.05908470335768818	0.02603660305149625	-0.008791901207463202
0.02328278488939771	0.06899968673859516	0.09901094233485715	-0.002561951470362281
0.01837986462595982	0.03480623152505245	0.08868891203350454	-0.009524951305593742
0.01655717531932716	0.001305938253133256	0.05573073989690237	-0.02491311822371822
0.01612246501821901	-0.0214429406176454	0.09405624361461871	-0.02251944339962295
0.01434280766894044	-0.03090700474792705	0.07614334793848308	-0.01886188830586766
0.01278808361652877	-0.03479373881363753	0.03264282276443226	-0.01989164411501675
-0.01283023288947673	-0.04690997097574318	0.007107835772096598	-0.01125626825370828
-0.008350321342465194	-0.03994630434639431	-0.01539639633845211	0.02373606955840877
0.006737639182849755	-0.01488251410802284	-0.01069913480007188	0.03884995615419855
