-0.01828114526471002	-0.01332836916326022	-0.0869358063797068	0.006975321959292852
-0.01027383455962624	-0.02267982531167746	-0.1064309091564394	0.003413205570019757
0.01671419524770825	-0.001555239508154488	-0.08033577724059422	-0.0005489106228502784
0.006651979527896316	-0.008967964376967247	-0.07089211396386538	0.009512356795305587
-0.01521499200193484	-0.02207401648953752	-0.02324252118649487	0.027379752045104
-0.01499225924606904	-0.03200775056581415	0.05007747277310175	0.04521621374571629
-0.0007726917843639801	-0.03196276679507725	0.05374910574040442	0.04225530508515657
0.0113499271598786	0.0279688394967388	0.02852958283826637	0.09032194033766082
0.02062357388629252	0.09400370158430003	-0.01382191841198842	0.03004472253658065
0.01201706103250373	0.07367706246737532	-0.04520607601521522	-0.07680980431208195
0.004863574786202737	0.03475025918736759	-0.009942593736699683	-0.04759200416807997
0.006876465754136443	0.01333608224178386	-7.858084888911864e-06	-0.03946762901157334
0.0008624755324890137	0.008063843793321994	0.00490884564994304	-0.05995858308985345
0.000213678963156204	0.02210115934996916	0.006063882853798714	-0.0527601288120168
0.0166900615138594	0.03020821850350624	0.05717336879038449	-0.02615679638489187
0.01541920583190042	0.01487003965642335	0.04770265065415596	-0.02111382261865057
0.01793132320865792	-0.001262946117031148	0.02820156588790981	-0.01487501516159858
0.0337998364670431	-0.02578191598289475	-0.01307102870070563	-0.01854074760544902
0.03079679030145578	-0.03242885216842288	0.01576090394237764	-0.007087457178472509
0.01829184527290909	-0.03167828344795709	-0.03846945939217886	-0.0365114779551018
0.01158876533387312	-0.04288849818749298	-0.0783790220066934	-0.04794184838034073
-0.004505170009658394	-0.05089672331331452	-0.06411708408129793	-0.05464726862406147
-0.02252035948658448	-0.02721570455653477	-0.03600665110038751	0.01487152137139621
-0.04005370792029325	-0.004447520431569508	0.02566047080245452	0.01008961739823097
-0.0498483065755534	0.003432520553536125	0.06130118702260736	0.02403266537568421
-0.04631115206131137	-0.01082159317239406	0.07271942435072916	0.1466929104882376
-0.04180077896353185	-0.01357057035405805	-0.01028843950879787	0.118148516668948
-0.03493301767672027	0.001637123280887735	-0.009361420129053598	0.0358146439635422
-0.01529643119718138	0.009565849471629376	-0.00783477547855784	0.006939139689777836
-0.0004140091780590356	-0.01128621592918791	-0.012893431129396	-0.0508277986508107
-0.0008653972516428821	-0.01321419101706967	-0.005512382288164248	-0.04301617157928994
-0.01276864377031497	-0.03325902258580078	-0.0002826810254598013	-0.01352814916034599
-0.004344584156685463	-0.01982820285124632	-0.01528509869847991	-0.002683411713049286
0.007121643559622077	-0.02386229601912064	-0.01839189126033663	0.03330687389699964
0.01297864261802037	-0.03564287858210183	-0.01459277460541674	0.03101255242816217
0.01100014436817906	-0.05369696913275004	-0.09918784827754351	-0.02740513006843279
-0.005614492296131187	-0.06351188511760147	-0.09700776398318343	-0.02457451982571402
-0.000546330645497682	-0.05270666521728676	-0.0687430903292017	-0.05669615641197862
0.02163848581332305	0.02224966957835645	-0.05201075284371789	-0.05370550668601104
0.03201697484580614	0.04842670474366992	0.07484933077575642	0.00231011436536483
0.02826188417695361	0.02254695441729648	0.1410110379205369	0.03675551992471403
0.02566869754542872	-0.02803778226545056	0.1295617088460791	0.03756876792602148
0.0142988109531018	-0.04584882921820536	0.06833287357722802	0.04781184165892559
0.007946907277320435	-0.0378707656666353	0.01441141988343422	0.01825690282922952
0.02363295919948087	-0.006363013608903463	0.03313489212881034	-0.01294843063376611
0.02152518149331002	0.01580582819155982	0.02610938505206026	-0.04902487689546225
0.009823391890368165	0.03235666156735321	-0.0282510017300566	-0.07087567750457098
0.006762270577364262	0.05774356112021946	-0.04899249169064181	-0.03753999799003629
0.01109310721204472	0.0878368452525148	-0.0513594919721177	0.008683092656524963
0.003532841934212101	0.08659562542519024	-0.01644832027179928	0.1088235785251359
-0.001742143095710175	0.05716517379458394	-0.01195040746594016	0.1274376855989437
-0.0102907060533163	0.009794624518667219	-0.01490838713950026	0.04195598568062583
-0.02052968329232659	-0.01426762563964658	-0.01447597297305586	0.03048045135677255
-0.03705210690242346	-0.0004879174443659139	-0.006915417483543434	-0.0129056521508087
-0.06363438680024391	-0.01580700302245967	-0.01847147968150017	-0.06532605264442201
-0.05366290682794701	-0.005849286881729685	-0.01218739666852678	-0.07277649347719574
-0.02353778079976562	0.006412872944376892	0.05348214861384095	-0.06112276988200044
-0.01534875512756405	0.02670358291715149	0.005273525036917298	-0.05888285152999562
-0.01635111946940025	0.02093025588509223	0.01373178853027571	0.09818576497943472
-0.0171023735279655	-0.005370923385380286	0.02127189027078309	0.05195697348196615
-0.007956009637938109	-0.02556667976443482	0.01834917134346875	-0.003185155076926107
-0.007881057402578487	-0.02433940203549761	0.01808513704712731	0.01643365873458057
-0.004896986336140085	-0.00984418151821116	0.04010269295805854	0.06448659314571521
0.01447692480668419	0.01303543668847488	0.02856591966909937	0.02153673713311574
0.0294767929972961	0.02431029076257681	0.01768067432457213	0.01600121367790893
0.05042120748652239	0.0252568022205271	-0.03087345674009288	0.01687101241960758
0.04693714130179386	0.008471006105227774	-0.0263594317665467	-0.01235208978136677
0.03753198000720657	-0.01865476359435225	-0.004924740176660914	-0.04075974463643412
0.01059570466423408	-0.04458639445826659	-0.02133179126850337	-0.04977449949769007
-0.005189641944512602	-0.04348873992244279	0.02154710876044849	-0.0387886488622225
-0.01752854487519193	-0.06390986699489723	0.007479513338464448	-0.02512540939828174
-0.02962666857761995	-0.08735865655886471	-0.02742929667699028	-0.01644341796207284
-0.03090017008932049	-0.08850934206781592	-0.03289774428396876	-0.04531467693631957
-0.03355095793629308	-0.04872140731810585	-0.02831526816805714	-0.1044540399581033
-0.03145796346454654	0.001173471776385159	-0.01330115331415057	-0.09851568098743353
-0.03364488346179336	0.05047040026417659	-0.005298261754842049	-0.05348576731389906
-0.01632491836519791	0.08281830215760491	0.01336803319986187	-0.00211298432503469
-0.006321558727737001	0.07983419639015407	0.02522120729325326	0.01776369275077384
0.003842879890930719	0.06701351949315308	0.0217123694466058	0.1103352536633026
0.01084886135711358	0.04887134262992764	0.01310010658701628	0.09107691194005051
0.0223340655661032	0.05090391883022524	0.054167693129648	0.001556711637374522
0.02451034035995389	0.03130286860857429	0.0575749871603206	-0.02915253713995655
0.007537884302436957	0.0004571222301264085	-0.008392237506750708	-0.01954543232004174
0.00770745239409751	-0.01799896645044803	0.009804075484977127	-0.002019704757905034
0.01689566118488562	-0.007153679024230851	0.04781197640994725	0.02132629945024444
0.01940342693031766	-0.007160122666580514	0.01012691073892718	0.09549421635933922
0.0004809296363085876	-0.03190647093880204	-0.02773042200708384	0.08725425970538696
0.01624417827287605	-0.02177252591580837	-0.0003408478358537996	0.06736297853300068
0.0257163351923651	0.0003076080033320125	-0.005492151837160878	-0.02385566809859056
0.02300162329757691	0.01866689832675672	-0.03734863404523353	-0.09953759168432692
0.01918660461142847	0.009616556676106353	-0.02927205804918231	-0.003507433165903712
0.02234221072309925	0.013360806028433	-0.02775390461846691	0.1136632300963971
0.02737955229193516	0.03677094125880625	-0.02278740020580058	0.1655289231899741
0.02733635712222399	0.04722749602634225	-0.006966791347838338	0.07795855297364802
-0.004495277774202634	0.0007667745892216981	-0.05251076988606719	-0.0176740331594161
-0.03912355417141168	-0.01918386204652616	0.05429506602979567	-0.06211023970302768
-0.02032966668999129	-0.01503912467143232	0.03469727588750681	-0.08746512357631975
-0.01434605020604735	-0.01920337392057275	-0.02064639439889582	-0.08364808428267348
-0.01109071570221425	-0.03523750833158001	-0.1003039245712399	-0.06792865023177209
-0.005338596763602545	-0.05700177637706202	-0.05280660883856828	-0.06794174665599115
0.003576256801469572	-0.05873648126822382	0.062413539529987	-0.1209461620120497
0.003180710503010001	-0.03979598665149466	0.1860927237710623	-0.1360100306071173
0.006621488941614746	-0.03462591112856538	0.1228048303578619	-0.01893938090357952
-0.009419921275831951	-0.06313830476673543	0.00309168824117135	0.05805505392654318
-0.01447900616512077	-0.03803050240113724	-0.04623874955500206	0.03522292305464463
-0.004252533464902753	0.02010977719121607	-0.1265254641230465	-0.02575092635167961
0.008112698660236239	0.05872049223029689	-0.1153581248578741	-0.01945492028804504
0.01691480571830832	0.0843641745089235	-0.02592257991744754	-0.01313645201619949
0.0117642376022575	0.0878525054395128	0.08207257565318224	0.03937705698454672
0.01763308211119546	0.06411927733363575	0.06420663686823963	0.06070906291451145
0.004085294759637466	0.01644618957960857	0.08301627720768584	-0.001927534642634837
-0.0006461270899615768	-0.00246849281883807	0.09236509285917982	0.03527413311569765
-0.001861821447458266	-0.01194957376974993	0.01704789432487549	-0.01557012234156495
-0.00194687658892026	-0.03112541760425842	-0.04900736222055501	-0.02067173381434827
-0.01561374272337884	-0.03404700057067352	-0.04678048655845626	-0.05217415052243177
-0.0227920745311825	0.02548501672644697	-0.07466113533955336	-0.05027125643901136
-0.01797954666990576	0.01738443905866719	-0.1001534971476529	-0.06328278282025691
-0.01401684312283172	-0.003306673620938652	-0.09158579647179822	0.02182867645892785
0.0005894558526010786	0.003234940861048397	-0.02222578196219719	0.0588864140213159
2.855477823851875e-05	-0.01308142164403681	-0.008412925190253181	0.0915747726686475
-0.009803734162055119	-0.02901101003713323	-0.02265670176399497	0.099324989960973
-0.01065221026017293	-0.03757345385533958	0.04032116044362628	0.1811437638811567
-0.003471123585449955	-0.0188156401640618	-0.01242509837486979	0.2083201702755933
-0.009570105395327318	-0.007276111804369709	-0.05921253698889141	-0.01994319936700523
0.002458753655543538	0.0256993901446229	-0.04520016287038912	-0.1084757133946496
0.008030244743511307	0.004184816706148573	-0.00639886360869406	-0.07979053312108482
0.01740811392193982	-0.00142271134312873	0.07640419836126251	-0.03060909544295153
0.01252090802660625	0.01220542795350104	0.1251518279524144	-0.03239774858426403
0.01765976611340648	0.04235333997451059	0.08961641550500514	-0.05821256575754282
0.0104674776839101	0.04273940834441416	0.02497883374693418	-0.08194441564423721
0.003838018948857588	0.0218458822935064	-0.05173492307944365	-0.01768619812204207
0.005171119232270292	0.01258204947331984	-0.03345097360720063	0.131777664947455
0.01391780233778563	-0.004254377055966188	-0.03929658626536447	0.1354620215346244
0.01129821618777865	-0.03301985398120792	-0.06687073905314708	0.1167656594746162
-0.00155335185537722	-0.05197466549438284	-0.01760591471209475	0.1304030846857476
0.004888788167126827	-0.03999259639430711	0.05939050485539284	0.06693626862334114
-0.011141869805302	-0.02891566727253602	-0.02875374814741754	-0.07395322602385239
-0.002996613676432348	-0.02992659827746993	-0.08112659486029555	-0.1171883243622157
0.0163907258055943	-0.02044781997805478	-0.02307558192826457	-0.1362986041636289
0.009123251059010462	0.00255903777251306	-0.02950509178875768	-0.1274269197182361
-0.007424245570615096	-0.01217265077745834	-0.002743724367666078	-0.08281749674795581
-0.01834209874795139	-0.03377513623950228	0.1186436500647017	0.03250104573264676
-0.02421584242189592	-0.03556964702732714	0.1281108618018501	0.06156940301079028
-0.01918118507134517	-0.01401590099770705	0.07750670099257308	-0.01413198373058148
-0.02157625587206446	0.02556595076846673	0.01944477544096668	-0.05730408928936719
0.00163179898322926	0.1000700658651107	0.004808309738745966	-0.04374131096339636
-0.003694259106762707	0.09558393515739132	0.01383398477538058	-0.02184469624428536
-0.04845848952944736	0.05818173804579204	0.01193665378037513	0.002254206692284311
-0.07337926716808169	0.01788647417944433	0.01583686615706367	0.04071081279629381
-0.05047431779331066	0.0004117279313589598	0.00590216274290933	0.07466072897074719
-0.01846793148544634	-0.02771606098294886	-0.05998268652989965	0.008393428465972113
-0.006463938525012898	-0.02693113053157691	-0.1002676200415143	-0.01458566723558095
0.01610459683320821	0.01512740756128075	-0.03202014989617308	0.03121357019271346
0.0127861843727814	0.02152506529145734	-0.01868870264665667	-0.005715968835949651
-0.0004615881709778578	0.02056028093207063	-0.02793561818768469	-0.04422542582028882
-0.00179348713996665	-0.002626398771881715	-0.01866782181984059	-0.02807356401015812
0.01508644942673277	-0.006921728182560075	0.01438821735410005	0.006385847739788672
0.03438388142045926	-0.006338621811415286	0.007667671452149208	-0.0851863928411479
0.04136854391997332	-0.02564802277124894	-0.0212339708384826	-0.1093766758804795
0.04211895752469922	-0.03033693211232326	-0.01781556173069302	-0.01382771457836603
0.02664704411584269	-0.03873234410639905	-0.006966780129817909	0.02628951963752047
0.01991883604991994	-0.03695860597143331	0.01670375293720512	0.03428719672659768
0.0121791203667385	-0.03247804020844569	0.0197212036959665	0.03711628411853785
0.0157532805428122	-0.0225957481458958	0.008838198706315768	0.02371247712207197
-0.0007489521760870102	-0.01133039025986894	-0.01008099616225413	0.02238773909249254
0.001452811624208394	0.01367905088678036	-0.002127377324856794	0.04209473566587064
-0.01762248193158264	0.002336095043583351	0.0165226171109468	0.02269009588062908
-0.02333354117300827	-0.006671891524403045	0.04128931961978179	-0.03541313419488047
-0.007420506013838905	-0.02234047927121939	0.02811306592644035	-0.05074033978727017
0.001433829710876459	-0.0259326480855447	0.01021804156826212	-0.03707238715520191
0.005227135786797864	-0.01854870224508496	0.0001333097774308674	0.002438305372486381
0.02171471902189865	-0.00747558724941745	-0.03509609716949112	0.002419927293473794
0.04214104537148881	0.0039045158602656	-0.06896343771065078	0.02021716607806229
0.03574037305289371	-0.008867364941431401	-0.0784140889131415	-0.01864209559315701
0.02657534124458322	-0.01310766190445578	-0.055979476368177	-0.03973783120227121
0.01695665049971315	0.01137806805746741	0.001301644043152006	-0.07053490041016842
0.01585361521932227	0.03905070846030805	0.0345960017498957	-0.07439197005724792
0.001684969606837422	0.03010399649312717	0.03708018394239448	0.001236653018569742
-0.01097468730620221	0.0156635449849188	0.107513174080986	0.08489811879455152
-0.001215214018926037	0.01799857481260306	0.1196976180533407	0.03731741072952382
0.008527941452592124	0.02824368583535965	0.129617011918236	0.08753424050509252
-0.02299902854032597	0.002186227266515095	0.136918498189293	0.09143227144350753
-0.01602214967781319	0.01016521932219933	0.1114793490544189	0.02412304513172044
-0.01443787697392273	0.02825527746048413	-0.02170622472592244	-0.04424188043345256
-0.0236805815380539	0.03123382684892503	-0.1083074349388457	-0.1213045293590817
-0.02517870972141379	-0.01215086939242922	-0.1025212753151914	-0.1246038803429417
-0.0138501810642901	-0.02224053979528714	-0.1224262463202282	-0.01964940588950389
-0.007532105861237624	-0.0227237069851442	-0.1209599329193938	0.0638183763669988
-0.009355081508689099	-0.01583711446855878	-0.04229082084266096	0.2027746416894245
-0.01383133001768777	0.006629483279032702	-0.09098744615236243	0.1044082614998437
-0.01729957186174875	0.01445936127306825	-0.07018376331358595	0.07852030142269471
-0.01936510900669606	0.02762842618728593	-0.04223321011100582	0.06685901511990422
-0.01023821660776695	0.02002924217318381	-0.04202841828290204	0.04422528744488736
-0.007889669704739104	0.01375135292528575	-0.01671642615362613	0.02286493468027185
-0.004656682926428023	-0.006545658017974962	0.05812824983548191	-0.05741682650212006
0.0108899210771692	-0.007969754400113733	0.0530835965049603	-0.07665914924460196
0.01343194145892527	0.02142361520664107	0.01017721285346492	-0.08041709701410171
0.007773349671143071	0.007680877266096501	0.04332479406761913	-0.003797228099900415
0.005201799251861481	0.00308275735406966	0.1348256166157046	0.02956518675743156
0.007531964047175026	-0.0001013378294215732	0.04253851762999969	0.1771106078143911
-0.002042143717287378	-0.008088769890523331	-0.03250748756242658	0.06942024231171441
-0.002485598864204398	0.01689655254718944	-0.036799325690981	-0.04713111927955525
0.003328924448276444	0.04928327211082426	-0.02638890494564968	-0.07108895096431651
0.001149348870898335	0.04142479432053584	0.08825490372542952	-0.06677011959734618
-0.01033976590256563	-0.007942969156371476	0.08110671835247162	-0.03479452229382881
-0.0004754648139766361	-0.005154471530246712	0.005290753459250109	0.007551554284888511
0.00879330810251564	0.009524980774119934	-0.03574714438636965	0.01604203098362619
0.01348826437630219	0.02449499551491438	0.02491978882225396	0.007776446859340914
0.02774465498231321	0.03597967454347755	0.05240933097074103	0.007740660406170235
0.01386967966376737	0.01411206890986988	0.04572027969324628	-0.01951812159900345
-0.008862133248482581	-0.02947579545177667	0.0550479820800334	-0.02937434584133928
-0.02161341505109606	-0.05775500251149669	0.03659651350588328	-0.02374410159665627
-0.02305315595135732	-0.06992905045579481	0.0193687258561379	-0.01532124878693222
-0.01609061054881845	-0.06392222466701859	-0.01162623512686576	-0.01725516392741693
-0.001439785881375296	-0.05424164662434302	-0.01652591824437923	0.005608429536715942
0.00854399223318	-0.04665740079949199	-0.04152447020673745	0.08971961650271812
0.009594164103632933	0.004811875149723713	-0.0361898974739083	0.08473466899101119
0.01882926015205505	0.02552045279485117	-0.01492074973417122	0.06309062544333309
0.04256623228807864	0.007813870565093826	-0.002548041274598381	0.001685205286951998
0.04356842291320382	0.007559832100141094	-0.01128362583346629	-0.120518664360878
0.02584028990900972	0.01038039197656611	-0.005072059544791351	-0.1314073089474708
0.02537161730301185	0.008189407239449064	-0.03122991873058037	-0.0686848286036872
0.02737440106427321	-0.001873115683381898	-0.04068366061360531	-0.1070203001216594
0.02687655460323541	0.001396680991170587	-0.06674521927243675	-0.1111443141636802
0.03470208730865012	0.03000500012221114	-0.05219287463913588	-0.08114942599895092
0.03428871165490929	0.06557301069312774	-0.05697932668558534	-0.07085562889968969
0.01550408121972929	0.03246132652141074	-0.0546122190955526	-0.01119095107452138
-0.01693386731655208	0.003675937087781524	-0.0004360526642115911	0.1709489803955387
-0.05691634016896024	-0.0009745199211372993	0.0217360454393411	0.1771938625903864
-0.06245675617863448	-0.02365803557142756	0.01027213752132943	0.07878932343232498
-0.05397299235223969	-0.03870609823493464	0.005182351035912549	0.05038062494772618
-0.03863233081642815	-0.04110226825850647	0.00944966779900823	-0.04359660760146367
-0.06107403375234243	-0.0315738862401489	0.01694399184542442	-0.08766966136819515
-0.06849469331914833	-0.001920302005619119	-0.04989981262624424	-0.1454395979970397
-0.06250088937989133	-0.01050343784619415	-0.06070250933803512	-0.141056030403739
-0.05715533273411178	-0.04192719842047315	-0.03952705318739233	-0.1446449048841018
-0.04738084971806363	-0.05762234642286113	-0.002162992693636614	-0.107844251698713
-0.02740463301928421	-0.04112791238678082	0.05589462756371764	-0.05496599733399713
-0.004205330141818921	-0.01460535740053706	0.1563043936218951	0.08641108006524456
0.00786773561134233	-0.01338238652208993	0.09287628744228225	0.1837669423708058
0.01818956305071043	0.02425076869651841	0.02688876227572731	0.1179710846732743
0.01600494160296722	0.03346342860891859	0.02096729728650384	0.1250457375113924
0.01443855060413007	0.0589114909798729	-0.01179449550354376	0.2152065425922268
0.009612341010543396	0.04469321423149845	-0.06235409713656555	0.1285727562412023
0.01829957203009993	0.03694426998710134	-0.06350071437639918	0.06334858099528963
0.03324117029694637	0.03876780097618653	-0.02503067711633449	0.02516869539260572
0.03383254434576285	0.02152665808424236	0.006161996389810582	-0.07168693860822357
0.03820860863273788	0.004138486113800968	0.01119882293243746	-0.1155037014520007
0.03026553214093779	-0.03832304347816532	-0.01537502189906917	-0.09118094560283517
0.03341685318609989	-0.0713068515619313	0.02784494720121443	-0.01895132958080178
0.03370935799072381	-0.07303103371846244	0.0341479645118014	0.01911009753786278
0.0132273961296211	-0.0453275691378825	0.01628369957473276	0.07774471784027201
-0.0006009149694518687	-0.02292289673159587	0.03338420761902369	-0.0006762093290139208
0.01232504403945143	0.0458599322975607	0.03196119076881133	-0.0419722620130998
0.002218886599866828	0.02842788628545377	0.0134877424742444	-0.05516479051059398
-0.002353684125696559	0.009591462931461547	-0.002144758176187239	-0.08119282982245764
-0.01473483742214804	-0.007186997902411189	-0.05996260751665308	-0.08073219792909882
-0.01283134880278661	-0.01414363948181256	-0.04167631124256055	-0.0200074200422513
0.00529599127427713	0.002423247716249924	-0.04295555228486145	0.04845269873268972
0.001071292259147583	0.01288849044894161	-0.04178700014109839	0.07645311199810614
0.00521904876376563	0.03164290111967163	-0.0661295821176224	0.07906245154784655
0.001178408892265067	0.07037365850519019	-0.1430991767652462	0.04824894738584482
0.00186708619520608	0.08998689044664891	-0.1393123679835968	0.05264302753500617
-0.01922577615624556	0.04317709239232245	-0.03633408011806955	0.06234037223093318
-0.0001207801002487848	0.01370052720357402	0.127538862119789	0.06444287064850747
0.003617258481403546	0.0017151066108941	0.1937001334888495	0.03974139830194758
0.000578664714140055	-0.007039601484307351	0.1601164868093635	0.01653404246549453
0.001025608982607808	-0.02067964015639219	0.08332064026280667	0.03385049619674542
-0.008251108759257129	-0.03451572337256912	0.001402979704212199	0.02424431102759645
-0.005828945304647182	-0.0344842661769712	-0.02614657852263774	-0.05775337222759698
0.01272992038187957	-0.01144122755712152	-0.001667198360520085	-0.06694073118863191
0.02697893391549419	0.0152664525974153	0.008956649778078855	-0.07333232857947578
0.0251024710041601	-0.01052487322805826	0.02858003534558711	-0.01910982214819817
0.01701585357747712	-0.02086310540346485	0.01330197436948604	0.01869185221028704
0.01644394190144327	-0.01325824643198549	-0.03417327713074594	0.03372371262635793
-0.001139727471357549	-0.02681392429978289	-0.0473173935571543	-0.004177062798475989
-0.004677285514337936	-0.01771359468932835	-0.02536113510798449	-0.06117731926772532
-0.0003103111526517568	-0.02998396104321437	-0.03037558090200636	-0.07782766789800884
-0.0009269169457425758	-0.03817719976598105	-0.01845994333145953	-0.06498026934343569
0.009960782152757397	-0.01287154826089753	-0.01472211173100348	-0.04966774885020236
0.007410562158356911	0.001749483793740036	0.003731774630669548	-0.03365966155150961
0.0006506255623119775	-0.00731259174858808	-0.001191702179040829	-0.02138434854314115
0.01149886931692431	0.008870399453552981	-0.02105183216162008	0.009534458109229345
0.01022947068774551	0.02576230682363324	0.008650098575799655	-0.01532364938684919
0.01828952217906374	0.1163560124873599	0.09136858710150667	-0.04387877849977698
0.008471208255855957	0.07450830841486494	-0.003291576944923225	-0.0825581721394395
-0.005766489179913576	0.02716933230368466	0.03025679611519431	-0.1243008004783992
-0.01039141119760209	-0.005392875078363783	0.04438921593941206	-0.06900228298790104
-0.007460589555626798	-0.02436708308987001	0.03260975151065534	0.1103651338568404
-0.02091569445768431	-0.04424489485234583	0.02510037733894857	0.1693768981572556
-0.02842672037441168	-0.04791799396030583	-0.009915494610637973	0.04709696219514776
-0.02846806810388353	-0.01884255845122195	-0.08976514953152293	0.01484519798592204
-0.0278415014408636	0.03872441581374118	-0.1033577251698648	0.005122457201724629
-0.004705154570294185	0.07976931188290409	-0.06287903427779294	-0.01444961367809626
0.007410880153460565	0.07162663546344102	-0.03584750935016918	0.02081143450466071
0.008383517174168719	0.06224509775255313	-0.005212187961389873	0.04328645331621758
0.00163610733607703	0.03671383974021634	-0.01174860705953105	0.09032833019216663
-0.007398876255278579	0.02084647754676272	0.03973440592103459	0.06877869101532472
-0.005858448240815613	-0.008649741960694006	0.0825054547908611	0.07586166776250314
-0.005129400948050916	-0.03450160589026118	0.05635193839696823	0.05499766352812511
0.0004601646740817941	-0.03241194672995298	0.02957941311130789	-0.006585063232767859
0.004468053137981961	-0.04689295394158747	0.04706046154613699	-0.1193601756504894
-0.005520635553984454	-0.04933218362988972	0.02173130766342611	-0.1538445594624411
-0.01075483905405131	-0.0001246408708728227	0.005791625181667103	-0.1084194079047494
-0.0322891288721147	0.04252861828249538	-0.02936859776178107	-0.0855687791574304
-0.03666382244209115	0.01078622483599014	-0.02107710929971218	0.0002566384284799452
-0.01738868825665657	-0.02953005920063147	-0.05806146034091302	0.05526686109847114
-0.01599406798343351	-0.0485020043001757	-0.06149837078166448	0.01542347004869797
-0.01907137644712295	-0.0455242521034819	-0.04035591602227728	-0.0009232940747933944
-0.01467039503072326	-0.02090887145383868	-0.01450118336605539	0.02172593382002277
-0.01043991857987976	-0.0006995952050361141	0.007426134080835761	0.02363238358976726
-0.008322760261164189	-0.005681863970600503	0.02429872643428953	0.04715458766475627
0.003269521716664686	-0.001831469326828554	-0.002533988069142104	0.09491570219722366
0.01557074576332547	-0.0007041598174465308	-0.0427626953715929	0.07961136963652345
0.03334722187215061	0.009676693381604505	-0.03999010151295888	0.03455041674260389
0.03125984548904204	0.003073497137189213	-0.01250228464205522	-0.01517933961649832
0.02356631116045338	-0.01111751014066335	-0.005036654636132382	-0.07664172930902531
0.01323244293060514	-0.007045493597586557	-0.01468339494910424	-0.07261622411958367
0.003932653455097868	-0.01679914633728303	-0.02068324878795976	-0.04713049488429041
-0.0006583741414195516	-0.01263163500262173	0.03034433916150248	-0.01121572656647073
0.002192414749681923	-0.006676672564330073	0.051170417005634	0.02315780714609312
-0.0008679544585894017	-0.007593027169992595	0.1189712027934798	0.03207577467525437
-0.001414931400275986	0.007342761000054788	0.1559741402926627	0.001173555216986275
0.0002808929943654343	0.01091222317264383	0.09968153399130994	-0.02978524600815655
0.006308460905679611	-0.0007065526303078956	0.01509874926185033	-0.02596258962015357
0.005697199630983306	-0.02207959440318126	-0.03673946301386386	0.0077984933158573
0.007018536018373694	-0.05482481825399373	-0.07821229059550627	0.01117198870440312
0.01141413831540666	-0.07447263585243334	-0.05619738655866329	0.0155782175928892
0.01531841693714921	-0.08333690509391534	-0.03489760737157893	0.01327176473262537
-0.01545294928312819	-0.06618568546054723	-0.03080158017368385	0.02068944334531646
-0.03789738117831919	-0.03708345433590665	-0.008187618307303116	-0.02356846602306078
-0.02287199245866646	0.01699024263812303	0.005257624236223416	-0.02931372917358434
0.00671233404256203	0.09415561761705162	-0.03571646887076731	-0.004674602224289445
0.01507411794005025	0.05844630903981745	-0.1060125542024135	0.04521669026745527
0.01471761279904413	0.02084813309638368	-0.05701527265501354	-0.003653522396021808
0.02934831434885306	0.015259331353284	-0.01755365971780546	0.001311958676008267
0.01868920196368936	-0.006832652342596847	-0.01525371880991129	0.0377094882646587
-0.0006592637004196747	-0.0171531688379174	0.1002900353872682	0.01475922390778645
-0.01642595853378996	-0.018699737725206	0.1279776977580266	-0.005662853595640574
-0.003707492614096773	0.001606813504829874	0.06110888168059119	0.008482849205351377
-0.003708745037643923	0.020569627914346	-0.01085712573711043	-0.003080713037451423
0.009376625233277237	0.06011060575890243	-0.005608152364101279	-0.0318347087966208
0.03082147800135565	0.06448857478701236	0.02056095568277234	-0.04799775016072161
0.009839687717875838	0.08317262357643813	0.002860721937349923	-0.04113416018843891
0.002768380211615829	0.04860050515565412	-0.06104311680301094	-0.02125961438768634
0.002141263117304386	0.00185315173076075	-0.0750234904990682	-0.01354723653632026
-0.00217897098079279	-0.007650583497885466	-0.02732349021066174	0.04639967644336406
-0.01790484326728305	-0.02377713083384561	0.002530451818486858	0.07478964786758056
-0.01912202140001438	-0.02773502741016445	0.01725968265008886	0.01398690518081636
-0.01585911095608207	-0.009767307584176474	0.04749261020348629	0.03130205856091504
-0.01137909243245553	-0.005302466207852423	0.04636237125426928	0.05163908326304339
-0.02079250320985009	-0.005837898221010026	0.04643758248868531	-0.009117015929877164
-0.02251666956071186	-0.01879519776635158	0.01894704810184781	-0.05585667054501155
-0.01227053535767908	-0.01960676859334457	0.009190858369655395	-0.07198804402060999
-0.004659006583762153	-0.01893293370667343	-0.02053228843720314	-0.05093470134314825
-0.003831907844566591	-0.01952690437027941	-0.02506976880049181	-0.01590727775494437
0.002555383239364358	-0.01024426199327559	-0.003891793356952342	0.07793533092562704
0.01358590710972669	-0.004692615055389299	-0.02687060679031874	0.08955358582484203
0.01351537567482914	0.009472388470233684	-0.02226861050476327	-0.008707105083077538
0.02645585587079943	0.044567020753745	-0.05563833648834656	-0.04939886946458213
0.02945163930368806	0.03678407955867882	-0.06245826785312029	-0.04621730442460066
0.03593761488628727	0.01557340879945304	-0.09552543404214048	0.009025555385030333
0.006541677376243182	0.01461109902268748	-0.06486416875393698	0.01796139807757454
-0.01921830911873716	0.0001182701475228731	-0.03117065478155111	0.02691786667057952
-0.01164334558916525	-0.03078553607557326	0.05778864194320365	0.05286314225211454
0.004015413935995296	-0.01705215594338966	0.1339016287688005	0.01773760310489465
0.03440738432238834	0.02438951034443217	0.1084425701159332	-0.07219944283348301
0.04701650375020822	0.07129449864150005	0.08237491738469388	-0.1090160133046479
0.02853424202914449	0.06565826169906061	0.07882047124223017	-0.03458957896036061
0.01071286049896924	0.04245419881945201	0.05173342113529194	-0.003941289709177269
-0.008501496127575277	0.02058583471721837	-0.03029767281317433	0.1034083492697215
-0.01053134963309803	0.01185410045719336	-0.06627066147108543	0.2480164733380255
-0.01165978430478773	0.005501761058055857	-0.04600750776175779	0.1640567595335285
-0.004963196053802915	0.01515121279009437	-0.026257590105992	0.02396013562149002
-0.006152838096202991	0.01841933955707056	-0.01513837871273215	0.01269323330949003
-0.03000986951998387	-0.007782449876071889	-0.05783652513917332	-0.08409851374343937
-0.04356231179505744	-0.02264615415164655	-0.08898674686610468	-0.003430066229298312
-0.01608150623630445	-0.03952019516639244	-0.05405158826187258	0.1047915294307509
-0.001667511686619452	-0.04001697961458835	-0.03886799491513762	-0.06050674512129588
0.004069499064013394	-0.03180091615488693	-0.0432083788376008	-0.09375438880209155
0.00550658220338023	-0.03537794408459104	0.03909437082139481	-0.04274060310930902
-0.003483770039904369	-0.03822280151102452	0.09123170803276312	-0.005158668737672976
0.003716831982473113	-0.02668589083648866	0.07613376665839446	0.02527632258634538
-0.001192388222367183	-0.02017756251001571	0.06366799394688478	0.02665229367449752
-0.0005460655014383139	-0.00956933380741453	0.043817480558575	0.00855493215900115
0.005418210043664897	-0.01378075215316124	0.01759554187804719	-0.03532482856760812
0.006892061806117308	-0.02412493734321915	0.01146533655850981	-0.04522883738715135
-0.01297333663166581	-0.02213677074523849	-0.01751034631461819	-0.07256360607658981
-0.02550745136016722	-0.01729691319502588	0.003463709914780683	-0.07344641204036231
-0.01212755749199901	-0.007559267167195863	-0.008662831997197242	-0.05470258971506481
0.00283187441615426	-0.006237767769383037	-0.02684162625159945	-0.02365465162746049
-0.002843345510750456	-0.0009595720525383917	0.0104533805680639	-0.02748524434514564
0.0151537971904229	0.01869615165405673	-0.01140540340386468	-0.03067885738482395
0.01724774651892469	0.001270132638410621	-0.04132490160480535	-0.07131724231743002
0.007663530023172378	-0.0229753400018507	-0.05229870229572316	-0.08242208034006759
-0.01435471285076824	-0.03764062704802078	-0.06848193114210664	-0.04563092836723861
-0.01809931290060106	-0.04023028032451754	-0.0764922854105598	-0.06676742639661871
-0.005989328998248113	-0.04070142584112577	0.01071846383574464	-0.06858557996561171
-0.004197059584622128	-0.02933426137062272	0.03500368643524195	-0.06157572756493316
-0.008524221037425067	-0.02409283944106251	0.02948189205108907	-0.03838152024916768
-0.02126889003691756	-0.0304859131127653	0.03058522974378393	0.0446247525932422
-0.02411478556202986	-0.006850748755687414	-0.0002596262078923255	0.1137940549437492
-0.02472747186488955	0.005181400279716426	-0.04627633314838499	0.233449623127251
-0.0165608327032726	0.01752316794655441	-0.004804676862796685	0.09008498283507872
1.355707700957957e-05	0.01422302855022735	0.07924372208071165	-0.102461135508783
0.007969853718873116	0.01980216693842066	0.03640692759755914	-0.1185884769457502
0.01304200870117097	0.02639595612127921	-0.05846152945721678	-0.04525488539034802
0.02565447655700862	0.07112114251688585	-0.08870935457495985	-0.02047051695211092
0.03373103248383402	0.09630102916513214	0.004818341692239399	0.002680248624299966
0.008367818649465775	0.1038980744207796	0.05108206214044917	0.0140967285107606
-0.0008063804079569438	0.09845440829731358	0.06708779981323013	-0.02102834127252699
0.003195153881217133	0.07586383718908482	0.1126819372935169	-0.03015400351193503
0.008041002726984686	0.03791308185777199	0.0809734698217521	-0.006987319033805832
-0.007783873164793367	0.007904592550457896	0.05885467097533554	0.01740124731224022
-0.004509555559650883	-0.008278850564456852	0.03307319696531182	0.02963250369376523
-0.004002030633434249	-0.01720628691380126	-0.007949287790721973	0.08875832661773031
-0.005573580197085517	-0.03630394113691573	-0.009067356188479741	0.1540830699704804
0.0007541342661066277	-0.02668852407431243	-0.02300197444490238	0.06366512134081384
0.01206439065081719	-0.01945760624517554	-0.05339159429494688	0.03073937392072491
0.01518108248579326	-0.008546223124514423	-0.04324658074535526	-0.00175180726992108
0.006219754154439992	-0.00769839404447706	-0.02117807398895938	-0.01367941858872104
-0.004538825346129327	0.002174334918162793	0.006205124681005794	0.006444647260972478
-0.005099164237343507	-0.0001058933487741502	0.01441270496191489	0.03301739630769805
0.0007336400650533956	0.00168200055139476	-0.01080439138206016	0.006118035030363128
-0.00299243052623325	0.03111201410210911	-0.05285810568480485	-0.01581364274666257
-0.007462834771413983	0.01927549091742535	-0.02201828872567748	0.01262891163122084
-0.01261209509635626	-0.01282566271097055	-0.02026820388318308	0.007539909850619893
0.0002190852423810646	-0.01452821615565205	-0.01508101918529726	-0.00439187029470958
0.005147090355498814	0.0005214856792603957	-0.001897748979079553	0.05751956012921036
0.005400915819789549	-0.03539689166687454	-0.01062881664585056	0.1210221955813243
0.01095310815585607	-0.04750825985492974	0.0002692322853851013	0.05619418251897591
0.01074070189771424	-0.058963308896095	0.000957118735061477	-0.01635703320145993
0.002415899499350132	-0.06855475298812831	-0.004448679997095969	-0.02340147742185027
0.01149826987387344	-0.03572832374771386	-0.002011176564138193	0.01377245935084333
0.02068159099158181	0.008238307196932138	0.0008456105732216586	0.02705882746868952
0.008050108301691377	0.02780617579056739	-0.01524792925499675	0.01211539436692941
0.008056769861772835	0.05050254476456748	-0.04055314029679991	-0.003135168886742928
0.01116261936803338	0.06579223424036039	-0.02048257554431451	-0.001943890511435236
0.01994873214406568	0.04190530373737494	-0.01570281048809922	-0.005783683508386198
0.01395160086501196	0.03691930488326178	0.03520994153939573	-0.07404014127849527
0.01314391099808014	0.0180215500609744	0.07938725968165287	-0.1061138127485923
0.01404413906128343	0.005457849453252958	0.06662663905651144	-0.04343671002208285
0.009621830374140513	-0.01566450471632627	-0.01586888771607366	-0.02219549571810924
0.008109259932943168	-0.02535933113654724	-0.08443270575632286	-0.03202781563525545
-0.00253563356717219	-0.04144344137970637	-0.06993443648873734	-0.0323013216555627
-0.003906384933630069	-0.03577840694331452	-0.0004891641488286606	0.002512772886679047
-0.01019089282871263	-0.007962991841763658	-0.03421948878535214	0.01303434220413532
-0.02018225575082544	0.002536657815277846	-0.02653732547273049	0.001384990806014509
-0.02996539953004971	-0.02180925839685392	0.03068510465432918	-0.005546189183247576
-0.02601468694404473	-0.051991731647015	0.03045469399188745	0.01948355688343833
-0.0231671807301824	-0.0456987619803067	-0.00124293250040068	0.03303701987836221
-0.01239479688663504	-0.03451111150401252	-0.002982608379581393	0.02450350507863792
-0.01391817867190255	-0.04254559994340789	0.03169318265512047	0.02867992483351708
0.003673556207023629	-0.02356731560110815	0.1064387219862349	0.1406665418937053
0.01432085310616054	0.01117414940204403	0.1150052531749052	0.1309668911351325
0.01285347609386805	0.01438061972886372	0.05680133212034556	0.05785238810820272
-0.001869829236682836	-0.005831581709329023	0.02100860354927874	-0.01039850086484537
-0.002236603468268746	-0.0007581933182163548	-0.01357187436982446	-0.1562016840116363
0.0007285359243665182	0.0275698418068738	-0.0116763183203581	-0.2689368776509167
0.002233063442610668	0.05086452532734902	-0.004959967886298757	-0.1900335421790155
-0.001461821706619534	0.0259781344709833	-0.03542470177911892	-0.05883953664779113
0.0004464335483635323	-0.00319690585185595	-0.04122641250409801	-0.01729107257521562
-0.01252948887784051	-0.02162174860949019	-0.05364862376309688	-0.01351297622810147
-0.03966459127079767	-0.01839740845932104	-0.04194946491866746	0.004571441552441624
-0.03124925515867298	-0.01448564983991014	-0.03876567685297655	0.02050024612265142
-0.019166588499406	-0.01029711425187908	-0.02748239494643932	0.03579605418388202
0.003527040226404109	-0.009592556796714632	-0.003574075053258722	0.0316090968366839
0.001295129388863309	0.00551362736647743	0.01979897790303775	0.05231736468612774
-0.0002337753726892827	0.003567755320763067	0.0006922996572867172	0.008661135615423261
0.001835801723087891	0.008548290851360985	-0.003071923145486819	-0.0579892275569807
0.002168792009752331	0.02059267075859098	0.0005502934749243109	-0.07387199713137471
0.00473507841357014	0.01696632457575924	0.01224892127050923	-0.05878813005272481
0.01820775061360444	-0.004287710820307785	0.02474288643292435	-0.008493226787478705
0.02637085259403909	-0.007385295818427826	0.02914384547461346	-0.02932857528219764
0.02568874727511404	-0.01186856919848407	-0.02320885538066791	-0.007631984323465256
0.02434228767312491	-0.01148242533847276	-0.0964636068074945	-0.01042906526597756
0.01643512047956977	-0.01272949360392987	-0.09591292152993831	-0.005488095152230464
0.0007020099224148694	-0.01735265455094348	-0.1021462746090158	0.01614884525773536
-0.007110374769754972	-0.01287841725224794	-0.077749008276816	0.1744624047425134
-0.006435671013945278	0.005358216425496472	0.07190184919019013	0.1207622013743019
-0.01317364567224264	0.001856302519587157	0.04728674703495275	0.03990037746222198
-0.02902941570108375	0.007910150937934089	0.05177442106383735	0.02170944541762975
-0.04604745193175632	0.03206933022737361	0.0991109485556239	0.09942479623303492
-0.03810784362614226	0.04959365245167965	0.1195035533573787	0.1250626625976515
-0.02710412765309559	0.01883018639490031	0.07442912819571254	0.01056189088129205
-0.009967113311526145	0.01408527625722691	0.0618835137182988	0.005847971675866613
0.002274834517093577	0.02393132710129671	0.04147295921692513	0.05521905460818349
0.01106569418683019	0.01995767241844182	0.007345929337113128	0.01085358221381867
0.007503411626408722	0.002473430217633321	-0.05003656509599062	-0.04892525672470117
0.008421091098248443	-0.003003140955891334	-0.02607303335183417	-0.09319484244479176
0.0001760578414292321	-0.01168639253739327	-0.005622560869014152	-0.1540585485269151
0.003730384038983575	-0.002256804163660257	-0.01158281276880168	-0.1247314257574806
0.01212706670767861	0.01893245793953801	-0.02671224628165255	0.03742516840101116
-0.01911545377732065	0.008424131733774742	-0.01411154940165866	0.1239171715565871
-0.02076836653142654	0.009040172627367667	-0.01666619040762527	0.07104516081185049
0.01542236807579001	-0.002451846385944253	-0.06196260293795672	0.0132124880828975
0.02256183282392833	-0.003058178273463316	-0.06479551283249783	-0.006268894850705597
0.01942505842923666	-0.01190470252218661	-0.07172286868468192	-0.01437275951402764
0.01201479037374966	-0.008895715879865042	-0.06106418455007644	0.007405162065447267
0.0214612863340049	0.0159485581941363	-0.03750657217893202	0.03364536217318563
0.027137304462385	0.009706022445523254	0.01577303458616981	0.07754536345510539
0.01952958493702357	-0.008046290670007224	0.04571371178839053	0.09105173409336048
0.005295302729890714	0.007173372521054648	0.04596624930009591	0.0561636833367026
-0.003953736482634932	0.03108286272700521	0.07670367592974876	-0.01411260427025997
-0.0009788266203830092	0.02980226525033393	0.0692972240231642	-0.08732106557201955
0.0002811266509430045	0.01419840924551703	0.04309248223186651	-0.09601496466224428
0.002263000025337265	0.01141275367644094	0.02942408806832677	-0.04819757522469513
0.001403258337577774	0.003357051925485595	0.001993504322556232	-0.03083724855639252
0.007710066757326993	0.006560266136287616	-0.02839017657249343	-0.02618989025698748
0.005568224544967124	-0.01351088357103611	-0.002628887910660386	0.01214773632134459
-0.0002306699189012621	-0.02925347380128682	0.003494248691677736	0.0286690309458549
-0.008799689137964639	-0.04036882076648144	-0.02233500405976616	-0.02145696153994063
-0.006280480713520196	-0.03539599118090089	-0.01457401106454435	-0.06361423929951385
0.02373027630848341	-0.02265855639575267	0.003523064598355351	-0.04344197932664249
0.03683730436194159	-0.008929998086143727	-0.03886758167018279	-0.03705330023732981
0.04156004012655296	0.001596175822095799	-0.0452063646006727	0.002204185215548287
0.0398150044275644	0.01232153226227739	-0.0164221598851032	0.01463528022939441
0.02605996729371514	0.003267862464232573	0.0001736441659294774	0.01836463689796082
0.01020128469293418	-0.02778289361719544	0.008717758515637835	-0.006890637735925986
-0.003457300508094134	-0.03315385127297962	0.04902768283103829	0.03574678351268611
-0.005818967238724236	-0.0307646435667199	0.09331320995739338	0.06047303183353984
-0.0274781630506731	-0.03929812166266509	0.04708215288060637	0.0406772920091085
-0.04628714675493122	-0.01343381064238622	0.02816407978214812	0.03040409342984333
-0.05758998876075556	0.05340134748416168	0.008960179810625118	-0.002505429080936232
-0.0348336802743314	0.09657970611843399	-0.09423684634876778	-0.09393326854252088
-0.004864322912973999	0.07502066246609408	-0.1101945544878552	-0.08609536209824963
-0.0008348996903215604	0.03864334179657493	-0.04405991627804892	-0.08371578534550927
0.005168149075947008	0.03565654636953015	0.01549531163018831	-0.08642275818232562
0.01433428621269345	0.0127816264478896	0.02723709384287812	-0.08932219347051087
0.01313229293845225	-0.01758883209330497	0.0268816773562419	-0.06545631100461236
0.007480580622604193	-0.03177115370147188	0.004411455185131497	-0.04799189323415608
0.0003004164396729601	-0.05416352791746777	0.005615244812460672	-0.02143292841130265
0.007034781022604028	-0.03932569297154295	0.01208081767261885	0.05789884720667263
0.02162577892159172	-0.01312141580334016	0.0133319820174127	0.08757474115896546
-0.004750207014686675	0.01585328764611642	0.003102846852976807	0.04921773678033928
-0.00062039403708466	0.03396531047727298	0.00943562237597825	0.02724122552761747
-0.007505834845490509	0.001005919391389751	0.05287825311815161	0.07670593359929967
-0.01543801323566087	-0.03040220534293447	0.0409579701414926	0.04557373338292586
-0.01658563441252333	-0.03631805474365283	0.01045326191026656	-0.02675286290629222
-0.005144775294079358	-0.03324617798788757	-0.03367261719451467	-0.02483430684524966
-0.007123656064959824	-0.03406512118077561	-0.03899051884076119	-0.01937731092932751
-0.006825579440002503	-0.01780434268426394	-0.06497004476997137	-0.001480698292618705
-0.02047263359056845	0.03791825560078108	-0.04595893470487016	0.02688833400325005
-0.01059526317776201	0.05787159273781798	0.0782099665857886	-0.006681067249884652
0.0004676786492010416	0.05256231328935392	0.04720552736457179	-0.04036511697103083
0.008812624195085324	0.02289767915525818	0.009762589517890328	-0.02289594598140445
0.004622175052126855	0.001801893463623662	-0.001213049464182709	-0.0005216147458859343
0.006720090299234584	-0.01261934658266313	-0.02429220812069424	-0.009414002488654309
-0.002589707663807245	-0.02512300932072872	-0.02680031714230975	0.02693270000391475
-0.02816214012058853	-0.02941597412838014	-0.01977765734138114	0.1231542914160553
-0.03077696333819419	-0.03662518919379758	-0.007715572698046741	0.1189276661478436
-0.01392482772881727	-0.03385879609093455	-0.04026416318137849	0.04352035640713279
-0.01098183832072196	-0.03523895839727721	-0.04402281783990851	0.03195245246281895
-0.008800451955272143	-0.03206205776400974	0.01301353155622459	0.06521305636539974
-0.01612748208444309	-0.02200843568116501	0.03798537465818763	0.06082064304945273
-0.01072170656328057	0.03666771340968095	0.006953935284301547	0.02851736314042774
-0.005232827775766013	0.0502010607144875	0.03216578914136009	-0.02698924961157034
0.002269917392910906	0.002811032417454066	0.008857433318882621	-0.02309938981751368
-0.0002081039280902999	-0.005452142877172266	-0.03157043958880038	-0.05052032607245405
0.009387488138898567	0.02236222635947955	-0.03944231962510571	-0.04394274424104295
0.01797005999899442	0.04930680068128997	-0.02725143421795502	-0.01885855267146806
0.01791033379545123	0.02909095329944304	-0.02026194011572694	-0.00410475611511513
0.02033307277103482	0.007755716144636952	0.00699644114158452	0.007217416424804834
0.02698328926592341	-0.008674267911428323	-0.02585927820944117	0.01307522850910937
0.02836797840114729	-0.01385874010568128	-0.02347846113189389	0.01101367454014289
0.04329355988448847	-0.01320019904422615	-0.01019941020755919	0.008777309193578886
0.03933301251718407	-0.02529095286415887	0.03487621098248375	0.004713497680515375
0.03539260784998655	-0.03457858766556526	0.02415713408429987	0.01300915528393179
0.01744212102362469	-0.0386726988126786	0.002815601348409755	0.004006620167204489
0.002131094627368429	-0.03795372545046306	0.01787195080425941	-0.0171967508911745
0.007446108050812863	-0.02307914042510153	0.0313343859017044	-0.041835728644303
-0.01815851298670205	-0.004681081391896678	0.06055123461026072	-0.007039121513982552
-0.03417550001927731	0.0001065107778740316	0.05918584042405405	-0.007036767834593737
-0.02811351308071697	0.0174801826344828	0.02542181447077006	0.0369257466689729
-0.0308203571824692	0.004442978795230361	-0.002140012254082899	0.08579328290531987
-0.04692677494600697	-0.01276019760935936	-0.02069979613332098	-0.04484433494300332
-0.08718785263981796	-0.01243566426296407	-0.02752595652633073	-0.08187481266764823
-0.07465615069570299	-0.004800178017623721	-0.04121280280206474	-0.06063747086970715
-0.03728129177245718	0.004230223915579768	-0.03990769484645867	-0.02617781738342382
-0.01239180389752473	0.03130362289278331	-0.04213211232912328	-0.02455416358109901
0.0172340211410509	0.06595903500823408	-0.02680183240842097	-0.03399687008091746
0.03650730397873329	0.03336385988520427	-0.003867505829079849	-0.03235198486225064
0.03836457706396097	-9.961811938455665e-05	-0.01873146691224526	-0.02153617207261476
0.03845814501417225	-0.008015621113203187	-0.01796322234719835	0.0246690942755446
0.0431984240322226	-0.01168447276172987	0.006986826197430535	0.07881626540305754
0.03083727273288088	-0.01956985596259038	0.04001414132147674	0.08502943980079564
0.02314410024349067	-0.01931090021058775	0.07131806162875667	0.05988938706077245
0.01108031499480018	-0.01629779171680679	0.0476262350272165	0.06908875110289583
-0.001447178618276919	-0.001978355206912925	0.04853567946328008	0.02325630859404544
-0.008566239467157323	0.006255445557839814	0.02679574718332156	-0.04000875402103621
-0.02034702806812056	-0.00721924380307151	0.01156429259386931	-0.05519650339797028
-0.04176341115347872	-0.02517965421830929	-0.02451183654725819	-0.05253682151965212
-0.02898537705814379	-0.01948878657052746	-0.01576833448331848	-0.07014468200760846
0.01056381001006051	0.05416903451184569	0.01954999022374848	-0.07212446415155357
0.0221362978869908	0.1039049366473905	0.01430800974549464	-0.09109513906788903
0.01509968179565993	0.0835580912026006	-0.0423272431559441	-0.09880024850473255
0.01084762663409031	0.05537685809534429	-0.05318909435976642	-0.05739170928582111
0.008344259491896213	0.02418877408431917	-0.07534168927205792	-0.01257090340200543
0.004827336700969641	0.03467186254128542	-0.04545177487728102	-0.02679148133279069
-0.0106677201391149	0.02667311459409313	0.1124488606749274	-0.01419383668037919
-0.02166111160064642	-0.02343502170987353	0.04141157272069679	0.05283417627749189
-0.008673205744212825	-0.05233153250243622	-0.05429205180293965	0.01813400838323066
0.005502007099521447	-0.05363787796796932	-0.06256574844346348	-0.03849989075705843
0.02341189114749454	-0.02279525919227477	-0.02757469354367096	-0.03456076970847994
0.03127356927653687	0.02977756260394453	-0.06370926703676737	-0.02931661690843251
0.01403543588086818	0.02882406212940366	-0.02082047855124392	0.02015812146833631
-0.0004516106811863912	0.003654125101145023	-0.006191624120335869	0.1503735016854146
0.005422934389641996	-0.01333938147318902	0.01844379767060368	0.1655344756374154
0.006478917393908317	-0.02703112780942176	0.1343035511328654	0.09724384489436527
-0.002959687087083774	-0.02979957744302709	0.09099807297019959	0.07702368193520856
-0.006168888608386253	-0.02625283697022032	-0.01845491200398366	0.05254083325178575
-0.0005623146638487609	-0.00529929110344902	-0.02269139402785967	-0.06122627687748813
0.005275273782112571	0.0001194135884424388	-0.02807227741124542	-0.08095739487080895
0.005803575534506705	-0.01272782062014388	0.0357077507007013	-0.01056218863059421
0.003636652550693026	-0.04094826987094444	0.06560069861085489	0.01073408827070258
0.01992018322471991	-0.02478676813102321	0.0352815224317914	0.01463900393697829
0.02173271882886731	-0.01136207615399276	0.002607721104283694	0.02208801227701666
0.02620441791962689	0.003270360325699578	-0.027570487057157	0.02784372617523678
0.03868260153625538	0.01839394143525945	-0.03238146779915655	0.005358876450643422
0.02753751081666789	-0.001893915949644181	0.001391065830011988	0.01764823794254128
0.02083518517665915	0.003448977670638738	0.03201560033466759	0.02094496310611932
0.01343278338602174	0.01981403444931476	-0.0005632463462660663	0.03554695500141739
0.003669861561792083	0.00151051256579558	-0.007903010666896471	0.04526461525080272
-0.02159489782653111	-0.02131760034039996	-0.004616776660361279	0.04646772634656467
-0.03399748169364691	-0.04100582384910659	-0.01538855296834762	0.0004568472522096028
-0.001107266256010478	-0.02209975414455972	-0.02107121621534806	-0.005609376361376285
0.004640896473189984	-0.01867918563827296	-0.01901944811613929	0.0004590719019411686
0.002030095499443469	0.0007008785634409964	-0.02140289852055828	-0.01454845468014648
-0.003136685383056435	0.03113346365423987	-0.008540196556296739	-0.04238501476212232
-0.02965401800093834	0.0526307275101032	-0.009786362354114451	-0.02293460995014264
-0.03621027024649716	0.02919481884500211	0.0002763459463035497	-0.01269753164019377
-0.03528940544863095	-0.01415454912756389	-0.000119482921343101	-0.1066007068309336
-0.0362204591458936	-0.02563943853682063	-0.002111774792536588	-0.1663244463266935
-0.02637451921776192	-0.01686382930856394	-0.01572034284611394	-0.1118707551218402
-0.02217413332605701	-0.01753653289557748	0.005423522203492981	-0.02770078002011475
-0.01167072581134124	-0.01494489800472047	-0.002564214531861954	0.04753807217805738
-0.01100462309894286	-0.009299573224837477	0.003013610785894251	0.0396570396924362
-0.006965821661740952	0.007118726189870122	-0.0318814870427633	0.02661982587020366
-0.006923558173340219	0.03707297983749454	-0.1046823463875572	0.05769863477491986
0.01281760421011535	0.04032528878711501	-0.04186864289693276	0.06846973270827512
0.0281185692285985	0.02110169464197579	-0.0186388710683152	0.0581834767521726
0.02588029860205616	0.01777985006803337	-0.0245894872612081	0.03222374461279265
0.01738586678176709	0.00951373805968065	0.09747011663534466	-0.003235854998677736
0.01072058203575819	0.004967602098647576	0.03771178845224994	-0.03233121331279262
0.0129592471893405	0.01207930261964716	0.01534398253622036	-0.07853144035278578
-0.0001915475293941779	-0.004861218114000369	0.01966666797429325	-0.07304445168198874
-0.002048879746530818	0.001847551937230413	0.02614830814497278	-0.03244835464798586
-0.005395757101817515	0.00927463297734045	0.02107733834303997	0.0213956438215442
-0.008160808653613105	-0.006722879508897221	0.0307036424339857	0.04111178350102975
-0.04550981632255927	-0.02746880908750209	0.003146901638223536	0.03677351628627367
-0.07315596980653841	-0.04172442876439998	0.009407880599073113	0.01630654045781294
-0.05479695590763862	-0.04552598004431502	0.03358378591504563	-0.003512253770798659
-0.009228278963913938	-0.06179012836190216	0.03389523151840288	-0.03201209541645955
0.007340263528807543	-0.05841267702702548	0.06479469841510012	-0.0298119380882955
0.02360845735817935	-0.02138657919647997	0.0812709217332144	-0.004882298232369254
0.01971809732720459	0.01425482418518373	0.05210667302394787	0.001535830078140343
0.03240838148639994	0.05725522027800817	0.03763388643600336	-0.05438826324044008
0.02059342088015816	0.03927055674453175	-0.02075354912087754	-0.06556354849648574
0.02856752493341925	0.03393162676789024	-0.06250208017491685	-0.04762209964380446
0.01658020419217656	0.01807435388896915	-0.1063085814663672	-0.06272936451673643
-0.01551377591827311	-0.004268123791128707	-0.1487970686108857	-0.05605096623964675
-0.02512909352694973	-0.003192704668933506	-0.1196596615511224	0.001939166234526836
-0.008474429186113481	0.003547806045589991	-0.08184649882409407	0.1274024494619313
-0.05353360264553766	-0.01330301933164111	-0.01982899775256986	0.1009657533423699
-0.03212202033864379	-0.006591113945160467	0.03181578793322758	0.02753104264699056
-0.004795387725169037	-0.01397598683672827	0.08319697082377238	0.02680297372693777
-0.001134246935481632	-0.02580093504433171	0.08679083164560113	0.05272662753832952
0.01032256631209128	-0.01886899692304572	0.07014116420583176	0.05971261637353444
0.01915656850274012	0.01623479844540833	0.02750326027639392	0.09941244908722421
0.009759075965238546	0.02983502771201134	-0.009808286822762686	0.1780630443495861
0.01718898256560446	0.0329582813016412	-0.05155373106778709	0.1002690231110136
0.0183321975783159	0.04751862511916173	-0.01354301848083772	-0.01090189690840196
0.02173092208576876	0.03354993822430443	0.003028266615657516	-0.06668034538028333
0.01870305971785034	0.00548551984627492	0.0004112082291057762	-0.05927277580012687
-0.002830565770203515	-0.009113248174313601	0.01612654216614936	-0.0288590046504922
-0.002918633285385932	-0.01140820617076855	-0.01032554604603013	-0.03805475016091916
0.004005829301081557	-0.02004929839177908	-0.04807386483379657	-0.02474825531091069
-0.006000604954237902	-0.03581606175474362	-0.05517129597699941	0.01192371959135024
-0.005566990553601626	-0.03929784974984976	-0.05678657756254284	0.07514537714298591
0.003466584619794392	-0.02116294096841836	-0.04580083260578625	0.07868408351454111
0.003857071676190822	0.007469846787459175	-0.009231906816077055	0.03653362799222541
0.002767984009667527	-0.01820877256794303	0.01259942483539715	-0.01448565712182856
0.008067264924488147	-0.03689102642122284	0.04813773610525039	-0.04907175425839498
0.0125910191291998	-0.01873196362092943	0.03407173563242842	-0.1307439848329069
0.01673283969472428	0.007047959206638611	0.0162504490698222	-0.1324749657926666
0.02137211825334992	0.05846390253685047	0.03363918039551719	-0.05421670226582604
0.01716223649399199	0.04786415977185592	0.03119798121943065	-0.1031605332850089
0.01225213163583213	0.03040754850495178	0.02579346316134472	-0.09742274376448117
0.01637970970641569	0.0360907834076051	0.05895060095655215	-0.08698264454022921
0.02973080481042282	0.04414629466838719	0.01321782065646015	-0.0605759673452531
0.01278132888919752	0.04080104950743705	0.01177890996708507	0.01164639805571802
0.01212798076307639	0.01049731968055464	0.01788143741793521	0.1748533481022166
0.00838629664070986	-0.01447971099878418	-0.03641024585029155	-0.01644123203822036
0.01951051114337828	-0.01990334159320721	-0.03765926560581721	-0.07537055280267617
0.01684473940977136	-0.01589776958403321	-0.02387368350840767	-0.0158583407052103
0.02236884498326902	-0.007249462213363831	-0.0445471494029987	0.002203508877305643
0.02312896717961687	0.00191387606029484	0.01066837812461313	0.03552487029692967
0.007651246505599594	0.00850956063051566	0.03703862121608372	0.05298646549897806
-0.01222937880732707	0.02464302704218489	0.02127484854998645	0.06038286867666069
-0.06050879545157346	0.04175701375965082	0.01933137892605034	0.03537083865438845
-0.05057840824124347	0.02860155304982592	0.02756070346187928	0.01101084847715842
-0.03469780713662052	0.01136317836011627	-0.006491352105871939	-0.004015756284956241
-0.02070737008229139	0.007362000939091906	0.01046239437545148	0.007216184674011799
-0.02566709817642982	-0.01063101407406935	0.004056244457224026	-0.003102326133552643
-0.03661014914935615	-0.0243787494992168	-0.001405674416685503	-0.003485710670342884
-0.03328175568642792	-0.02867820392782863	-0.03148717890387056	0.00967122022370857
-0.0169999405401194	-0.02127328438051265	-0.03745563425734252	0.004458791527134113
0.0004985295864001884	-0.01301128268207644	-0.06606088324321208	-0.00562682017539944
0.01128186849629423	-0.01622606906005489	-0.1046095568427212	-0.01129102861186827
0.01320408758424402	-0.0424300929015384	-0.01281199539603507	-0.0286984047415139
0.01231302776655266	-0.05140658071254738	0.06511756370588834	-0.02476572091322346
0.00477693819911986	-0.03953224442774585	0.02061694618412776	-0.007150656338381673
0.02016083111348783	-0.0159523350480903	-0.0004235672406191221	0.01026994068141308
0.02805150428647696	0.01227222971250806	0.008601121661327893	-0.000692063045423802
0.01558061912531949	0.01942504188919496	0.01067070276167392	0.002632359905415098
0.000123056003044957	0.006098810167576393	0.04718269376280948	0.04555318618786769
0.0003256262101568323	0.0005944744863335827	0.08128614505870504	0.06192994625266417
0.005626990014805086	-0.01599998203595002	0.1338198704491467	0.06742950953114082
0.0005841166608656337	-0.008594271451050326	0.1149310845938004	0.06107200505722584
0.006717380263375734	-0.00389170770711255	0.03519435604311178	0.03094127941925368
-0.01269521221980643	-0.02245299449642624	0.02394789717744718	0.01836952429640416
-0.01580287256979112	0.00577449488863912	0.008293850303245245	0.03989477587076828
-0.02212818731817495	0.05011555904164841	-0.02188286214365397	0.01102210205835844
-0.02137642674639889	0.05094452840910437	-0.1096448464314304	0.01001299987924809
-0.0200713574095208	0.01786783929589062	-0.1136927732636478	0.007258065333885915
-0.01976554820545508	-0.006384940294057574	-0.1106492457249137	0.03945969671613112
0.004542851884337491	-0.008684553687009608	-0.1156616929611552	0.06089474345303264
0.0292026324354332	-0.000834610589229662	-0.02284844316583194	-0.05922390830384338
0.03245511725703815	0.009909742230107908	0.1439977236812536	-0.05769975716006867
0.004291051071342155	-0.06759884515080561	0.0950195558826903	-0.08747878178981498
0.01432154797602316	-0.01745003537115896	-0.0003983376655544561	-0.089712354454554
0.02428881149184815	0.01845324076500147	-0.01199044449647121	-0.0513864333753184
0.005469432968569736	0.04115957931942181	-0.0580930585507376	-0.05888523295769373
0.002829922373231328	0.04418130327000785	-0.03342298855391752	-0.04406692175492073
0.007020231070867248	0.0134149258677271	-0.02128044617832468	-0.01601756539942829
-0.000793023488635868	-0.0009586754353329912	0.05324663752619108	0.08095681823661377
-0.01538679206915728	-0.01902757916235933	0.06001631123958943	0.113365563751419
-0.01157061186046088	-0.03773878899971979	0.03144442212185544	0.1785786233090018
-0.01228045039274242	-0.0368205667804434	0.01782075311834851	0.1286334908260082
-0.01202387827115589	-0.02373190698616658	0.01089412341432965	-0.04958835320488009
-0.01138133298407685	-0.001708743086804758	-0.03236339257888003	-0.133586313351999
-0.01225675328226815	-0.0351903856078289	-0.0722536329361609	-0.1483182697932327
-0.01477745484882488	-0.03919755244595397	-0.05957126294219218	-0.1053518317748433
-0.0007796471294569116	-0.02351262961052535	-0.07041672726252317	-0.04594250912774474
0.006217596786274917	-0.01628873589323535	-0.05874026440588249	-0.02664752936952769
-0.004066779986014671	-0.008584906266151215	-0.06110512155015491	-0.04553851298067114
-0.001316322905676912	-0.001586147066216461	-0.0485097772264696	-0.08805623695435491
0.004756566831012644	0.01935553451139803	-0.03836399022988844	-0.06483495072495257
0.004984319029031188	0.04158843319563586	-0.03380194488282028	0.02426183141531237
-0.02111169442885082	0.01671893717249525	0.01527168427934674	0.1389101692148502
-0.006189215858204871	0.01371513577388544	0.06991404705786174	0.1168311834796769
-0.01822287311673779	0.01283377490494203	0.084761450568478	0.08076643144299796
-0.01698989811943005	-0.001560356696921598	0.03179047705180923	0.02352615496250556
-0.01181359629298571	-0.006303178305375209	-0.0164375417906617	0.0003532946573370031
-0.01115294327614843	-0.01492208146271004	-0.02022400563623249	0.05562035355111649
-6.191210247137894e-05	-0.001396424984486865	-0.03466369900680043	0.07391451033661525
0.002202082454430221	0.0115989597084031	-0.04601777875357242	0.07654404688796926
0.01614684110768966	0.02703235310163988	-0.001762644514550992	0.03991304878801834
0.0121231351917126	0.03858258082042729	0.0270901706316183	-0.01368093194304818
0.02064389298647157	0.04870121073522309	0.03469258466721694	-0.09876790937024965
0.01494907368128697	0.04050447419137029	0.03504501266325895	-0.1207324429617204
0.01322547058617582	0.0116429296622974	0.04050636967234385	-0.1050393070705792
0.0007170609062734817	-0.02527600087050859	0.05145763034019928	-0.097047575634459
-0.0008350348284369398	-0.03875156931381406	0.0311703294479252	-0.07481567604849558
-0.003523539966173921	-0.0410498177943126	0.01450405035236722	-0.01253391662563024
-0.002070959990247848	-0.03783452459321325	0.002760401792765503	0.04104326954021666
-0.01708322985267156	-0.02024318256042279	-0.004032212539297394	0.03719233785009277
-0.0200513967741839	-0.01134842983072381	-0.009096755112593507	0.01251324856922223
-0.008408936105653329	0.01458412792639381	0.0009504449957180696	-0.01102598759306191
0.01460543489031675	0.02747078393658455	0.01927688730166934	-0.04042261337484988
0.01932025028279556	0.02555941539472364	0.03356079737234214	-0.04751345523486698
0.01517011436991334	0.01342583928334974	0.05296536955652811	-0.02577740968849044
0.02468769979433777	0.01625758129272824	0.01863296266934598	0.01238186932107774
0.01950307209821146	-0.0008085660768082199	0.003162146811804211	0.02741173446482211
0.01188908712983182	-0.02115147895227706	-0.01968595807840585	0.03551162600484133
-0.01018854222100862	-0.03233632099273175	-0.001474704494472539	0.03934232579622286
-0.0183441072077649	-0.03403571462848057	0.02492845222591591	0.05136231938298173
-0.006483107231593386	-0.01362823275309029	0.04042936512762968	0.05482191361133249
0.009341242786320914	0.0303162579132136	-0.01227965304924085	0.03477890148585607
0.004269385281055461	-0.05960437610525023	-0.04420611727989112	0.01157694261060091
0.00465636638132097	-0.02589495373612511	-0.03462966538343714	0.01509124925108108
0.008424458308007714	0.01094730891902963	-0.05132204518960074	0.01337674718811069
0.01269170873391791	0.05674749548969057	-0.03216229527263178	-0.009172548875356306
0.01510144436168491	0.07927512492083896	-0.003356469638696156	0.005209091121463454
0.01095377112479575	0.07778176865087044	-0.01043818189180974	0.03180392015246095
0.001492900481937548	0.06422821193202734	-0.01972329298975006	0.02729332535937631
-0.003278125697069167	0.05490183876961369	-0.02113486412022079	0.01573523168180569
-0.001960368906039855	0.03206127464256145	-0.01981372711902231	0.01115224637205048
-0.001812271038970996	0.0158962992729004	0.0684593919335322	0.00321427455103499
-0.000722416816431586	0.003688447321933369	0.07102013734426799	-0.01084017787902246
-0.009828773921064687	-0.03540240630751045	0.0375062235481643	-0.01872160253116269
-0.006596795190335803	-0.05158284112563023	0.01496010322617426	0.01367986399998142
0.002198987685685602	-0.04771216467508542	0.02383155024237895	0.08548831407889658
0.008952118919648422	-0.03955827012515373	-0.007603844821661721	0.002446844650883925
0.006032079553877816	-0.05460246094788608	-0.02837825124765464	-0.03988755737424617
-0.001756818257845975	-0.02844232372344563	-0.04097235321773559	-0.04480760849123857
-0.006202883405792701	-0.007018662542168972	-0.03187636093820086	-0.09364282633603759
0.01154499657869304	0.04032699440564893	-0.02533082269144604	-0.06157879657729569
0.0145029497451627	0.02426922211501767	-0.01529426088198658	-0.02406725070450798
0.01620537831033773	0.007784391396818064	-0.05749555649003792	0.02946494220246661
0.007461673215558575	-0.0002319759349646185	-0.07615439794981921	0.1292779086599205
-0.002311102863515212	-0.002196953822932209	-0.0554950012044843	0.1795509213369958
-0.00219249692403789	-0.01112527003985993	0.014600854322939	0.01558627320639834
-0.007797139271679958	-0.01499176130775413	0.07222200069714919	-0.03917623866758999
-0.004386632223408527	-0.01225619925903557	0.08620890210256743	-0.007071728715984542
-0.004751391051588719	0.01547868255762136	0.1069902740649429	-0.02099255678807825
0.007447471678806408	0.04779446786897639	0.1038720625993883	-0.02940927462237572
0.002363750269522165	0.05176059328813178	0.06327056508990546	-0.03207396915663153
-0.01888670463837091	0.009344941313221099	0.02926243775436467	-0.02127484784397137
-0.004806057733870665	-0.008426438021196169	0.03687783662400686	-0.02970708481703801
-0.004185972398658169	-0.03334747772296263	0.02884470658744944	-0.05781146151890072
-0.009692130588797074	-0.06358352440959217	0.02675348252009051	-0.08472334760373267
-0.01135650498965505	-0.06458126703430823	-0.04192114188238007	-0.0638801603924557
-0.0001746659874985288	-0.03840397992614609	-0.1131032696605702	-0.04460197446067173
0.001559640773788206	-0.007289927613365171	-0.1188267582638217	-0.02973753875640051
-0.00738067044433306	0.002448701053205289	-0.1132186077210585	0.04123261269212562
-0.01404029945696814	-0.002442446483343432	-0.0693217222537905	0.1870959891158684
-0.01188993313974269	0.003754839683253513	0.01691677414464588	0.1371014911263479
-0.01486605235765219	-0.004121013304097306	0.02151371617231487	0.05101377398230306
-0.01590450374009979	-0.003433407287831745	0.02041470380481598	-0.004745831697535992
-0.01538156293318281	-0.0261999434956961	0.01359165695854439	-0.07441553747779248
-0.01442498368509975	-0.02172945006753988	0.03787146681149055	-0.0399661137564417
-0.01182960515069719	-0.0286194243081695	0.05271506975698037	-0.03859381987392464
0.009058348677913233	0.009033419625838743	0.01508686602593449	-0.01531398812633515
0.02063391628957112	0.0283818130939749	-0.03494954151699267	-0.03012708692453163
0.02774502470762817	0.04926269473000554	-0.03968072661610587	-0.02267645012395354
0.03288082958702653	0.06454240933764295	-0.03478103827238411	-0.02835740543196381
0.0317055585976249	0.02449329351945187	-0.06048503243357979	-0.03367166492050889
0.0269897095944434	-0.006039414014502779	-0.08931233835903968	-0.02453266760401749
0.02419744219918644	-0.01521962541820253	-0.07633303520457448	-0.0229114316104331
0.01239030798854387	-0.01341367723930782	-0.07123041351680852	-0.02877679933302625
-0.006562029822842722	-0.007469933711177299	-0.05116989156577408	-0.04736971972407299
-0.02479606583422108	-0.02322522199304617	0.02489887157920045	-0.02122262220098904
-0.04167481703269911	-0.03816107841350961	0.0720791985572049	0.005493521858893869
-0.06055355260061273	-0.03727020135904337	0.04608119923063293	0.05265608902885136
-0.07872231782292365	-0.02320997127122371	0.06811565513402902	0.007081546693614139
-0.06227823633285212	0.003207966501599205	0.07150421494277735	0.001290060551377824
-0.050821812685189	-0.004893838464865378	0.05524315851499238	-0.0006370977427465983
-0.03276921493375139	0.001876054300089543	0.03441765914849259	-0.01208583225623073
-0.003776159697250843	0.04923938520422737	0.002058386621787405	0.01285375826441144
0.01866601815890194	0.05056280220844447	-0.02950497625584217	0.004289635596352576
0.02777691640786938	0.0304715205258338	-0.03193762083686696	-0.02363453724674843
0.03437201325066819	0.01997956997082071	-0.01976170006642707	-0.007395759638608475
0.04517641793051258	-0.002707676495022829	-0.04431724673423442	0.03134479188801916
0.04643619227095408	-0.02447084701937641	-0.01747469311498185	0.04046764965629759
0.04231224856344029	-0.02536387382054648	-0.02439359076187067	0.03855721701688425
0.02685300016859878	-0.02792680785227578	0.01057268254753602	0.02162268436025339
-0.00744486070661636	-0.01229812181505175	0.1467731902951289	-0.02294927457980586
-0.01470578885720187	-0.0008167678949401551	0.06392176263870519	-0.03417826638542327
-0.005892017911582044	-0.000360353166392691	0.004246159768067336	-0.03224675504405372
-0.01015847975017424	-0.01858583554656969	-0.01569511745381172	-0.03877914656597869
-0.00140828278418753	-0.007719384613762387	0.02864435238450033	-0.01646452322208559
-0.008972739942924555	0.01825751840426247	0.06878769237222315	0.09663637956952836
-0.02250820833750227	0.04548576282836159	0.05516326510604162	0.161904402435876
-0.01622468986652249	0.05378450521097944	0.02139485749328698	0.08175585102651872
-0.003104292278716806	0.06741063001325152	0.01318630828406031	0.06329667147620407
0.01247685923961053	0.0773212977367834	-0.00363664312175228	0.05855908959100595
0.01613763091710707	0.04926637966777384	0.007153634991032708	0.0122853295291297
0.01224480228256906	-0.008728447800470043	-0.006174192556973485	0.02380052759720913
0.01645167892733681	-0.0277639345165047	-0.01625634021271111	-0.008091237732321892
0.009632698579047781	-0.06041222405093852	-0.0199057009545544	-0.0446249838434063
0.00447484830223573	-0.06683245661409365	-0.08195453715955744	-0.05876610523314602
0.007487130105749137	-0.03623683492946205	-0.09113105095247785	-0.0190979608384597
-0.0002917135175396963	0.0687011191062542	-0.06899863852837643	-0.04121763931303406
0.005055146295453171	0.007492558052533616	-0.09002846078979644	-0.1064189754127595
0.001200950213630864	-0.02655103798070044	-0.06410285550386896	-0.1003737061159168
0.01083362007967827	-0.00285988967402926	0.03630639942817126	-0.04003940194945391
0.01936797704662269	0.02250543025099692	0.03751451169867651	-0.0227920101427923
0.02607229912154459	0.04389369675642061	0.02507262999195222	-0.02928805505518768
0.02146256863001464	0.0498099112553061	0.02025161069807066	-0.03290506559778719
0.01189481482247463	0.04458339476957127	0.04794748534247235	-0.005736531617332397
0.02196645573139715	0.01782500011239638	0.04139818003039154	-0.002001374688527523
0.02012010024635744	0.03135371952793943	0.02954891936580574	0.01122954372344301
0.01771751488073469	-0.0006753707696756576	0.03342587265809607	0.08933902653145161
0.01508714713587533	-0.02756712229657736	0.04885291947544263	-0.005809454929159981
0.01308049045093831	-0.04501934216629912	0.02771607446232027	-0.1045500317273846
0.009827408212372849	-0.05099985449113303	-0.004752469555974606	-0.09702793014531921
0.005057991444352279	-0.05583590524275755	-0.02599253476761975	-0.02376352577213848
-0.02233084802492273	-0.05685895661703467	-0.04098833350031999	0.04174499147356047
-0.03550111580300763	-0.04632753990258134	-0.03213180506431347	0.001327026532509352
-0.0408338815008097	-0.03203113265260914	-0.01861239010869659	0.04427078550474776
-0.03486740354307892	-0.01127616166495049	-0.01594963199625163	0.04899434270105038
-0.03933997975815477	0.00809191087599938	-0.09285422170721598	-0.01037072073817792
-0.02022086321981166	0.03848549237304095	-0.06670463321369083	0.02889174673692113
-0.00328706615865372	0.0347608507895999	0.06980261976543443	0.04894988376615193
0.002336836135552614	-0.0168922568959438	0.02800930313167876	0.05930973630384895
0.007925359796672221	-0.04092574022831331	-0.01857969050857464	0.08812678711307208
0.002326409701465004	-0.04163442947007747	0.02106605696670534	0.07292616200935757
-0.005162629228724194	-0.02331910183185054	0.0678076371797614	0.06156865294454473
0.001513278364558883	0.01018271601655978	0.0334033745394241	0.03504446418182437
0.003372344452153223	0.01156772469585163	0.0122478538739783	0.0008461559987390449
0.00252287882406923	-0.005569037590248588	-0.007565474069789562	-0.04587603609504112
0.001577612176959071	-0.01454678374717527	-0.01107122393143716	-0.06865058493827814
0.01304279368106706	-0.006195324314848202	0.004178181969160818	-0.04234602476009921
0.01394917123780338	-0.008030234786086846	0.007813953970196633	0.007650653984515751
0.00929019358498537	-0.004244352897758013	-0.001168952926533683	0.09513435862465203
-2.605367577401612e-05	0.01278056207161444	-0.02013687116957225	0.0521316718079604
0.004933305736466292	0.02651006260444234	-0.02103269202359037	0.01870945274710686
0.002951528360987128	0.04109909075281309	0.01266152347877542	0.02398690521126093
0.003736761596562463	0.05860221947249995	-0.01146029653209425	-0.01295905850348399
0.02152447024846511	0.02073738123288713	-0.05144079915553052	-0.008438366924126603
0.02104002706686788	-0.009661391804485654	-0.04595936246054481	-0.01293042717286562
0.01849989101137664	-0.04160532665154797	-0.03636422830389371	-0.01897426769862234
-0.000147005287355841	-0.04861975825624604	-0.0401001969767783	-0.0007666167442511063
-0.008358822640461439	-0.03930773725748816	-0.008014625614139802	-0.02654475918376643
-0.01600369257443676	-0.03336292739216341	0.02611760379768485	-0.04393736758698768
-0.02287622211503152	-0.01943192738415788	0.05637452938611049	-0.03851252298357007
-0.01662795963445595	0.02503890800668076	0.05346049635921925	-0.03423519258016964
-0.02154765391501913	0.03940200500894651	0.02626623165019841	-0.02648663211784299
-0.02581146412026092	0.06499575707229052	0.02968285453637177	-0.03612878722837706
-0.01521271274855016	0.06513129583176187	0.04144954430555167	-0.02928586714762847
-0.0008675936401295518	0.05166900947112153	0.03251053313717047	0.01702965175405712
0.01769593749142433	0.06366456286112378	0.01093460906509779	0.05988748469012471
-0.002284289308473177	0.05509856718324326	-0.01275500327858577	0.0259176324886076
-0.01446176587272605	0.01947647055238239	-0.003588477799361459	0.005514404203490407
-0.007959710298860386	0.006654544849796521	-0.01763409951284433	0.02591004042779743
-0.007721419799193191	-0.003119500229712777	-0.02725385310232426	0.0324919616430608
-0.009054120499447258	-0.01134268097503689	-0.02363139848064866	0.02850827803045995
-0.02704057092511231	-0.02373233740153729	-0.02516933409641203	0.08238764951764896
-0.02656642823804208	-0.02689275094177895	-0.01626629984673434	0.1084872273823605
-0.01516421612483746	-0.03255849158366425	-0.02246597865101581	0.06927722714554869
-0.006676834584646582	-0.04345455051051797	-0.02943344475563643	-0.04345968737519155
0.002442284628730762	-0.03852372127332723	-0.0234034871563904	-0.1089798465398433
0.00164496672947932	-0.03281569008695369	-0.03455143379345958	-0.1960354458030095
0.01009955353122492	-0.0226689151117937	-0.0622306175815274	-0.1801610265231545
0.02223759099172773	-0.01408119582731407	0.01014295051252957	-0.1636535915620401
0.02041003074258145	-0.008680148052824417	0.0397535683553806	-0.1197441487158876
0.01542249295860965	-0.005852061246622214	0.03729632339458697	0.01929374969508492
0.00658134470740307	-0.01098523018281635	0.081879595593183	0.143556331771743
0.006141343763191536	-0.01630347950199787	0.1218116606867087	0.05568686006290743
-0.001944204569361732	-0.01069658597359923	0.01519097100499709	-0.03771672062670019
0.007260231551715986	-0.0303949631936759	-0.04735332684692603	-0.00789694522052559
-0.01544810338222021	-0.06130528587907449	-0.0811049097811823	0.01644720138375332
-0.006893279877790487	-0.07169615960951438	-0.06010630392478576	-0.008464187644223086
-0.004369774036290514	-0.05030088408750558	-0.06450544966871244	-0.02450367884380092
0.008846021712671188	0.006159676975483066	-0.008592799918947269	-0.0001062405950427211
0.02220138131563426	0.05084424790663011	0.04992546539877875	0.0225454002867066
0.01327300276145133	0.05282089481124595	0.06135333424254612	0.0305460536837431
-0.003229615711945808	0.03631226425689143	0.07558729261511228	0.03348550889105249
-0.004995137632846731	0.02937528088969509	0.06270217625027007	0.02468479757129959
-0.01842861834730396	0.0259237521366789	0.0438582972702105	0.03564304287441346
-0.02361603729476978	-0.00518201528807872	0.07818595115780999	0.02982774187737167
-0.006142363013573675	-0.005961583553446408	0.02510971526249603	0.005028371663500797
0.005663333999131102	-0.0009945764056822214	-0.006505394966493577	-0.00629414192578976
0.001660619064080507	-0.004765429894905684	-0.02727875666277767	-0.004663220072694382
0.00072655349781699	0.007434319899808247	-0.06121450108687226	-0.06768646758393827
0.01326233459523552	0.05164282188969991	-0.06775907008457775	-0.08032809718055459
0.03288498393713959	0.06634005557134193	-0.04707530162936224	-0.01749536481304179
0.02557486619548254	0.05539881885693104	-0.05504506104592952	0.05267550673185915
0.02003490747031124	0.04057611401590854	-0.09660387218240848	0.07002282479230376
0.01671315767380282	0.0172600285706177	-0.06060923312997531	0.1804708785439897
0.01740849469772326	-0.00970314583777177	-0.1192216362583305	0.06383408646537964
0.009588349813504132	-0.01610023866118455	-0.04898287894456364	0.002836790623705047
0.006457415137710993	-0.03217420140933043	0.1208576185701739	-0.003871649174850598
-0.009496086686964738	-0.05340677398901066	0.2381271698935684	-0.03840356951778038
-0.01285142224390494	-0.05522126875677807	0.1350747174388534	-0.01572350886589858
-0.01744795190598188	-0.04384544345789954	0.1088029932320216	0.015498768357897
-0.009153803016650969	-0.04229637819981182	0.08212328963282368	0.06961401005524981
0.004314446645588845	-0.0245395539719566	0.02822185036097596	0.02134047054926876
0.001964292988774214	-0.003864062649219271	-0.02715656879003664	-0.001630726331274075
-0.005584275762469482	0.03233809000138227	-0.0513543830672926	-0.001396959705865499
-0.001529330299055967	0.0407846289067699	-0.1051730515400883	-0.02252332002405891
-6.063489293117339e-05	0.08397848363689352	-0.06999008404739783	-0.01117900083197468
0.00931777802655275	0.09114332694153808	-0.05954543997208858	-0.03171758214699985
0.009974380730567211	0.05751207513976145	-0.05840681536381479	-0.0382531011029078
0.0009647784512378502	0.01851962521219435	-0.05185676365502261	-0.02600258742523569
0.008496384822116381	-0.01199672468697249	-0.03170788328646715	0.01023898180281541
0.01824829875865074	-0.02068951166927571	-0.02561216781815097	0.02073076526379083
0.001400427292563873	-0.02622695830415795	-0.008859691154998614	-0.009042466412145393
-0.01994644861355541	-0.06613271998790247	-0.01242186016019914	-0.04946386704916585
-0.02208350673901248	-0.06860758563103156	-0.02594385963888863	-0.05155963661904446
-0.01659320246073434	-0.04165039722010254	-0.05879875845521542	-0.03870163660313073
-0.01339354689656166	-0.03702310403701658	-0.01507064750875275	0.00565488066259653
-0.018907475798506	-0.04597536805121816	0.04130285733462943	0.007292078937013015
-0.01292083772538657	-0.02192014521814146	0.04572730908518374	-0.005251193201002547
-0.01952266518749897	0.0170358382790768	0.06412134589208349	0.02690425012172132
-0.02628502190709936	0.06941900087030582	0.0447419000361472	0.02435574428858453
-0.01258491082913358	0.06665157479118125	0.01753779655131817	0.004613746465827709
0.006583763797011177	0.04358644364169419	0.02540501832034474	-0.02759110901402578
0.02160958496830471	0.05074254673598882	0.04315633130657177	-0.01633730891097453
0.0303885128309314	0.05523919001760928	0.02208528023206852	0.03259927863246728
0.0384079164667125	0.0355834139816937	0.01607659527971924	0.04020039143743199
0.03083411551281595	-0.01820278424453645	0.0163693611526235	0.01641543008417867
0.0280585237872138	-0.007881272957433507	-0.004018313072179657	0.02412351545587086
0.0218653905570546	0.02131836635919996	-0.04026972161951998	0.007670867975671566
0.0005246742878789157	0.01277164420209296	-0.06988960058653755	0.001184364990430933
0.01193996971978758	0.02980969628583405	-0.06362272763206671	0.01787353241813657
-0.0001323848081246661	0.0200163068575526	-0.06068925260269866	0.06364459045243209
-0.02363573704276129	-0.007927765428040877	-0.06700740705544521	0.02740612543790786
-0.04445118425402199	-0.02430218799848274	-0.008488059375763451	-0.002399454650648027
-0.04695490621846607	-0.03169443996269262	0.03631727203782319	-0.03597984893572978
-0.02464517499488272	-0.01286272871773503	0.0488563152972095	-0.07177691374521261
6.502701924140589e-05	-0.01069813693900151	0.03594711725050743	-0.05854855909563903
0.003661494093006803	-0.02154907791077141	0.02478033020007518	-0.08466851269772355
-0.008181138979992645	-0.04567764122996616	0.04706836937536386	-0.09154439055593687
-0.03502886030384136	-0.04411092773726969	0.01748369066848621	-0.06685895482071956
-0.03891303096954738	-0.03896077993979708	0.004877969227951106	-0.05265139664221576
-0.0164239223558402	-0.009137720049801705	0.06298588178773314	-0.03655667949955207
-0.006014162228637134	-0.01182568087948766	0.05287868417805803	0.1518831187620057
0.009874508169584051	-0.007636335052375441	-0.009931139714245156	0.1954829716167193
0.01058792468278121	0.000118531373808952	-0.004173659108266919	0.06585988558979927
0.00245748817992132	-0.01103635425438744	0.01201394437440195	0.04438242817403299
-0.006861128804697419	-0.02916152249688814	0.02037283519985407	0.06366464900240425
-0.003248986015091617	-0.02725387346719844	-0.0357084920635389	-0.02043460980327582
0.0002750240911170372	-0.01431916451179044	-0.05407110585193386	-0.01297600978771434
-0.01154963300822052	-0.03575610480393968	-0.01787898509969619	0.08270359897608234
-0.009991096369732862	-0.0418353576254265	-0.01641192817206777	-0.007524123326951635
0.00237779713454679	-0.02335678889175785	-0.01190192125738099	-0.02852613909086527
0.02217532563755511	0.002163932509179611	0.001293677097886092	-0.09952260822837096
0.03450786706059582	0.01264918462538587	-0.01973831159058762	-0.1014033314985636
0.03431577487625181	0.009251098323328859	-0.01954671761955792	-0.03575765281840287
0.03520008372253863	0.03909892672305525	0.002794691373163534	0.008953058829736417
0.03523625973372755	0.07253000669318237	0.04565229147653624	0.02635941401654304
0.02481831195658	0.05058031121995936	0.0282001509373221	0.01148870058679318
0.01726117601584866	0.01319061361356753	-0.01300994509501533	-0.01049799961690515
0.02057447726937455	0.001154322111351167	0.007215815229222404	-0.03101087252838523
0.002526765530413357	-0.02589781497046456	-0.0106615601632342	-0.05979611414806638
-0.01151485043632149	-0.03784951102350527	-0.03039494593699197	-0.06224356472249532
0.003261439294450136	-0.02068583484406836	0.0102868742304705	-0.01328846000260469
-0.005412961409648998	-0.01024429910283316	-0.005012754358890423	0.02118952868489934
0.004924148488408005	0.001088667314830314	-0.002859377974767421	0.008663541061933008
0.01088380261478223	0.02529638210357993	-0.01339622453382015	-0.0172163853833619
0.009917853917908708	0.03268826800213811	-0.002623834387261176	-0.02049123055887627
0.01525808760712672	0.03223106232994971	-0.0163520247913026	-0.006608231539162845
0.02147482781975336	0.03630194941509059	-0.0297742565338772	0.01748853866609845
0.02343512284534778	0.0542723619139566	-0.01256729741875185	0.02752531546225494
-0.005813492332898764	0.02192861018411505	-0.009564600756236117	0.04580223820356302
-0.01624898310942113	0.004569480559703101	0.0266298371240641	0.06463545620862987
-0.005176151842471709	-0.01798237273872776	0.0271775926968142	0.04853137241610207
-0.001159900725471566	-0.03095065581855677	0.02903737452817757	-0.00661687958110692
0.005168453490939592	-0.03091337128342914	0.02639828094618031	-0.1127306492428942
0.009053301169938676	-0.03474070226126079	0.03244607973280404	-0.1241920893776893
-0.01038776287566751	-0.02511146920552858	0.02002630527822325	-0.04398749098115249
-0.04972242411326774	-0.02767233061393426	-0.002862814745606804	-0.0506317200942327
-0.0593438116608225	-0.02668380613368436	-0.05271624662612871	-0.06878264954534564
-0.03577830450519438	-0.008743746879176508	-0.09978836490003094	0.1216789078863348
-0.02617975605303092	0.004405406526032829	-0.07105822784215894	0.08017671151763886
-0.02058106444083536	0.01862160104443493	-0.06325809758244208	0.05262711608215836
-0.01998242903817366	0.008662020592323117	-0.02469737004224379	0.06271447403492798
-0.02784071312165123	0.01868128083083516	0.07872896244109777	0.02450553084648351
-0.01568972092988872	0.04080447527378391	0.06007408169304859	0.04580624992065871
-0.01612403765926769	0.04464917186009076	0.03739113029557858	0.05831290101300655
-0.01360539633114897	0.06060100596600743	0.006443192984002403	0.04832925429786202
-0.0128798926356026	0.02592600934257699	0.05168063821891838	0.03241297731704799
-0.00473747699491955	0.01047770134092127	0.06262653347548852	0.01035769982372596
0.006445271587497704	-0.01524124635214224	0.02508592188007154	-0.01181443983259667
0.01805186396111866	-0.03285385387495831	0.03099574447830868	-0.001958614394413553
0.02133772959819587	-0.03493366841371905	0.03359665170059711	0.01697901582894685
0.02753943295092088	-0.01398694788308675	0.02166013440273715	0.008196318456054216
0.02134961772575131	-0.01441140218338139	0.003108187320626326	0.001352336324543867
0.01852701581385217	-0.02258465169719702	-0.02172669784648618	-0.01063997790106003
0.01150969383035053	-0.03351828066586372	-0.01189788894229138	-0.03475615126460188
0.03016070329631578	-0.03548604090984611	-0.01193799517124442	-0.04243250755162554
0.04211541736922576	-0.01749126580404628	-0.0266667096568411	-0.05545611527762118
0.04093170619294011	0.01303278081788602	-0.031724975324179	-0.0735041448147068
0.02305164531965663	0.02135241084244755	-0.008244849907502913	-0.05112758414469509
0.009740748586885966	0.03195148654635021	-0.03033907939916721	0.0236745975006877
0.00530151696891796	0.05917356006101675	-0.03640480134282754	-0.001926490907712584
-0.01196797991114864	0.0629951783819816	-0.04350449636527726	0.01219012421142584
-0.02002653750132644	0.02681511455084019	-0.05069865685677283	0.02316938991025325
-0.0212275763701515	-0.01936927861459575	-0.05741715902198483	0.01671846402975878
-0.04277167511151463	-0.03736467446962061	-0.05194911733977175	-0.003669622592872502
-0.03937487632652628	-0.05495737399768075	-0.01940422280281866	-0.03213914202583466
-0.009551179947936033	-0.04453325134613481	-0.001612851465093099	-0.04669794878988747
0.001081664634909931	-0.02135319875793338	0.01354498349618226	-0.02786105778516224
-0.00688645350659057	-0.02508860919928267	0.09290903055150657	0.1489931746810774
-0.006846484157740084	-0.01496988604939477	0.1358808098461425	0.1290775459424186
-0.0038963186767705	0.02388245109187238	0.07413975674327918	0.02273486592510152
-0.002187134140607571	0.03836851119117608	-0.05119555394953281	0.02109169543815734
-0.003571501351884545	0.02853424422529318	-0.06123513539563055	0.02241640978865092
-0.006013450476140377	0.0147898300907748	-0.02117189827751119	0.009397534325126919
-0.01343696960393822	0.01374997311655677	0.01460278472118158	-0.001599645921867763
-0.005976021526366657	0.002730174039198293	0.04144719219692518	0.006632100320307702
0.05279425943868245	-0.006599210611492319	0.04501155817127393	0.009880807936637077
0.05574880416427288	0.005571708438188113	0.03843955772857712	-0.006668401886078894
0.04261076561617967	0.00165385313434929	0.04660353843418818	0.0353024145813675
0.04942527720069488	-0.01122937914371207	0.01104836065994003	0.05459041209359142
0.03645969144705907	-0.01191853593757978	0.01038567978828241	0.03991431784912888
0.02238218698746821	-0.02402915972630938	0.02278352863722635	0.1210466882716479
-0.001174314175740895	-0.01532940721837197	0.02034171730189727	0.1212022124382651
-0.02628205640133063	-0.01274401561730964	-0.006983602711729241	-0.009053087828231039
-0.008186171471153851	-0.0009508932498753341	-0.0576585032331805	-0.1045475126089082
-0.001971356588023709	0.004196531599503039	-0.04076141119668258	-0.1589456435228285
-0.01941799991838324	-0.00342166842347924	0.01615883294490301	-0.2527524660013795
-0.0375689668592727	0.004066116873623319	0.04143375589394727	-0.2264637510125403
-0.05146825156364002	0.009072796645828289	-0.0433867430961181	-0.1473984163195058
-0.04788627358956361	-0.005555186368199429	-0.03257735633189937	-0.0599610894684422
-0.03875540007229098	0.003855452130989582	-0.04883845332027306	-0.0009747621829369066
-0.04553926058879329	0.07018657515310932	-0.02918314546892889	0.05107328736428936
-0.006489215953955794	0.04870816150331857	-0.06827107660693944	0.01695496271858287
0.007424473868116764	0.03239650776727392	-0.09374044244547182	0.003064947281038177
0.007117921154765193	-0.01608569040825402	-0.1021312366727312	-0.02520581644343434
0.01918497397923113	-0.01799360714438573	-0.01778828120370305	-0.02739607207804448
0.01356518780339203	-0.007597036411394619	0.02092573437011925	0.03417705448669309
0.01576719604386666	-0.003920144702402401	0.03443954096533947	0.06456298533169522
0.008239082448734454	-0.01242005710998926	0.0571147018712876	0.09886597457851264
0.001188338152705579	-0.03440145474953465	0.08924629061107778	0.01095182095493767
-0.008892208064984551	-0.02785306391530666	0.05064712831014424	-0.04837769969658724
-0.01137220382061612	-0.03227190076724669	0.02498526132540149	-0.06790196697140542
-0.02713141798860981	-0.02372001095966527	0.03963942416335642	-0.07465531384181298
-0.02735902443344198	0.005916837332805768	0.06405538790326505	-0.02753303086678252
-0.01594487814964002	0.02330701890124477	0.03113022908010112	0.03201884913712012
0.0001460701833535492	0.05265047131383774	-0.01024383665489358	0.02789356207883737
0.006138763068745615	0.03298630549943619	0.004759124960138176	0.01075597151642953
0.01012234864596816	0.01025716334597694	0.03851786791554882	0.0806740331820085
0.01743045825279894	-0.0163510604623946	0.03552936228192976	0.001627176235750471
0.01454392816983934	-0.03213298600246564	-0.06957487893536879	-0.02468660067312155
0.00690137254547697	-0.03184351419644601	0.08262444233757266	-0.01441063549703696
0.004980759510114184	-0.0265278618685396	0.003221003976007295	-0.01575254283610492
0.007525806028710467	-0.005159398803612464	-0.01090421890272662	-0.03276542262323408
0.004808165995152977	-0.0007134882254391536	-0.05796906872635146	-0.0369348071576154
-0.007599870866954826	-0.01623221124375356	-0.06484216888183873	0.001650551724431734
-0.004201949803108994	-0.02362529735962578	-0.02208657497093183	0.07982945405179033
0.0001045981917868594	-0.0248882852936868	-0.006350419276008483	0.08541894871013543
0.009704537440998142	-0.02079172842989965	-0.005124302728689876	0.07970266027057546
0.02313545237657727	0.01579438775633399	0.00477449443620549	0.06033645343246852
0.02688436772265038	0.04432281959749883	0.004916135969367935	0.02613907531960008
0.01610574043972546	0.02459805377936799	0.01235981057441272	0.04044820483313624
0.007490121939526068	-0.008496188818088307	0.001668961282296373	0.04217436557321982
0.01002246885307068	0.01771596411042194	-0.04738927542739733	-0.00320445929189314
0.02340667134449015	0.07202912701085598	-0.02203940087432784	-0.01793689352882885
0.03792271504322939	0.09487762737048858	-0.02517532644604717	0.03251805195482393
0.0355290385592345	0.04370721252872419	-0.04036008928837739	0.05680063180921072
0.02468641063926308	-0.001103471616717949	-0.05263960057920435	-0.00805096767655865
0.006642322431528347	-0.02905444693406439	-0.04995942957767214	-0.02379325402085643
-0.007928449374637348	-0.02789290766102397	-0.0605510720088741	-0.02115057753447606
0.002772301884783992	-0.01521752896953032	-0.05804909498123435	-0.02497942659635004
0.003343457066831471	-0.01784527992046259	-0.02693620161182031	0.007088525564409203
-0.001732673211047002	-0.02264398204994653	-0.01334630705449854	0.02274998755953224
-0.007014147663779273	-0.0221109965164535	0.01385351085493746	0.04982294579470048
-0.003941084834087728	-0.01753184231171396	0.01883967767236181	0.07731936805638649
-0.008831122827998784	-0.02379062009421334	0.01612464065496893	0.07877444169655463
-0.01768859415894052	-0.02858922760117128	0.01736526933660974	0.06458423912775153
-0.02168233150659624	-0.01875352571022639	0.01631001523916955	0.01272140936934987
-0.01912972879880738	0.01175208785069275	0.0221792272584614	-0.05405458092899881
-0.01410875867662563	0.04142459011526324	0.002761635642138539	-0.09360859944398434
-0.01934358519402871	0.02854698675689002	-0.0248528465768223	-0.08946106599849289
-0.01553997063050842	0.007869761907950376	-0.02673666905860253	-0.05610866218363297
-0.01569977612161504	-0.01336920154424117	0.00696868323958885	-0.01511317630645972
-0.02027036530759341	-0.01361830964611349	0.04789915252126233	0.007168727347135292
-0.01246682963471527	0.0008879674599100713	0.05136712984834658	0.004011636565856097
-0.007034417664519699	-0.01121640973553067	0.03431237084325128	-0.02121778591414298
-0.008844254817556411	-0.01965789164548571	0.01576437023094087	-0.01629036344146917
-0.01154227111024825	-0.02868445288980243	0.02041639971070591	0.01748804827914988
-0.01075121833415359	-0.0146347820513661	-0.0120665195622211	0.04291542997027167
0.002604513719999329	0.0008766582395383453	-0.02094798079529401	0.02720226933906761
0.01718732511536936	0.007446133919046755	-0.0227397822242981	0.006214007548182859
0.02224132365120884	0.008385368271209248	-0.02363678847120534	0.004238587130741168
0.02695378615478389	0.01246331465583947	0.01488583675952997	-0.02576862070492071
0.01166043975867813	0.007370956469055282	0.06787838700157857	-0.05922197359343898
-0.01363553079144349	-0.01299597534473865	0.08501864225003931	-0.04982685056361977
-0.02842711885439552	-0.01853438777384224	0.03659054470012546	-0.007184099741001673
-0.01938889523281075	-0.01597130732302026	0.009311402564290331	-0.007591655050034167
0.01051357541222951	-0.02029248275188918	0.007329131322204339	-0.003439815056503728
0.001982911183101526	-0.03173322910768861	0.01144566414154461	0.05451329333031193
-0.001831282210796733	-0.03332320132384231	0.05392083916377918	-0.03213456518623172
0.006920637600826844	-0.02444519404664151	0.05179847321098945	-0.03159296977033538
-0.001188588792182347	-0.02788280015982007	0.0626319520027942	0.02460645558457499
0.003995160843136506	-0.02544433495844295	0.01654885852128753	-0.02327255254878696
0.003588701221668979	-0.0347509936012274	0.007291826390981774	-0.0391529948032777
0.005223930608379826	-0.0175665214542931	0.0132597098318173	-0.04445297466597424
0.02256262914682007	0.03083105790982979	-0.01006740776047751	-0.01440394399314667
-0.0006929917806708361	0.05620592703749262	-0.06447168731056527	0.008806891307204434
-0.0123126551971418	0.0665705879696086	-0.06153493286820828	0.001490450588773655
0.008297278234373378	0.06373517158165504	-0.03043013448771684	-0.04053836295786276
-0.001221316245995322	0.07876188354421555	-0.02415976418836891	-0.006704693183743624
-0.003255821267313788	0.08895508923353845	0.03246827235212672	-0.01776180938994996
-0.01175148181849135	0.08790967418385956	0.1281039748587789	-0.0226892978399481
-0.02173580963055764	0.04068465880131882	0.1102353034747704	-0.02433817923076282
-0.05117704269825226	0.01274331862360584	0.02376714227249802	-0.03471716126158453
-0.02187155983288694	-0.005237999014041344	-0.02752174009998011	-0.01222514115011862
-0.01300772734686519	0.002486623700198044	-0.02136522377619822	-0.006984045768348945
-0.002292495400709592	-0.003974726655037794	-0.01329477655579323	-0.01582789436404442
-0.004371864165085857	-0.01385689246978555	-0.02197662949209508	-0.008383912785558448
0.005148990420422264	-0.02200950034458658	-0.02634610324955277	0.004237046816449675
0.02214285166701307	-0.01693836741807488	-0.05223344153186159	0.02765491860898935
0.02694713820116951	-0.007090442715039243	-0.09539739092265175	0.03775685159834045
0.01009315958691458	-0.03794009124141587	-0.1117894678408233	0.002369494877422151
0.006418809615304883	-0.05280312259710237	-0.08684235717685131	-0.02591967784986271
0.007899224714914461	-0.04354596483210219	-0.08149736154958874	-0.008874245942978276
0.01057450720689911	-0.03522859368207385	0.01777744873236014	-0.008762569978099485
0.006417425255271265	-0.02742106415406332	0.1005080162955058	0.01544929911425221
0.0222563694964498	0.004759888531877585	0.06172701714141129	0.1185002103533476
0.03172992914669794	0.03163024188686527	0.05839553734305238	0.1325259430173878
0.009053623992655403	0.02066569560361665	0.04999879103526991	0.04642897077327397
-0.01575002801337316	-0.00941791105866369	0.04741380644725396	0.03558848732105156
-0.0004531968966293334	-0.0441990263603839	0.02100456079502281	0.01130394644982372
-0.001368368009151741	-0.05857708912339094	-0.0412696432431965	-0.002798466491308327
-0.009865100231391409	-0.05417617913266545	-0.05441285099957471	0.006328975118278266
-0.01997993912869335	-0.0325947836798391	-0.04797086982794754	0.06117236987622131
-0.003968114612906793	0.0381651333786038	-0.05176664139629279	0.05577188764254781
0.01921869833680583	0.0995657559376569	-0.05291390506716563	-0.00716426149455259
0.0181268305722926	0.05669309493270946	-0.01354013898674925	-0.05023261252729275
0.004441645520568454	-0.003037723152077129	-0.01408846236292985	-0.05717779095773238
-0.002066419589335323	-0.01386341663838794	0.001314822790492514	-0.0599902201215622
-0.01653012744903517	-0.03016428354363297	0.005119880132633262	-0.08453689881499264
-0.009771356525146855	-0.01314924337164697	0.01659619844493163	-0.03302367192535529
-0.006431769910228494	0.001824030756625553	0.02468892404722328	-0.00658185523933069
0.004030000050184127	0.04494966824019576	0.01618778229395125	0.02095404807312928
0.004230035594479047	0.06594934870016307	0.009805624508713156	0.05634411124239607
-0.002210672707651217	0.03645109594293475	0.01214169321507064	0.04542445830704156
0.003261790493355594	0.02805555926534694	-0.007903753029412892	0.02703119585430721
0.01865081284935925	0.03015095388223028	-0.04370509856139805	-0.0115608982793418
0.01819262468674144	0.02391451693243872	-0.04245496728262465	-0.004288878476533818
0.01466310628136135	0.009098084797916163	-0.008225665538525146	0.02384686230507799
0.01047756600604766	-0.01438618980518993	-0.001832658746458868	0.03863593469492782
0.004063998430041032	-0.03047769200348454	0.02665020986761357	0.01707868186973876
0.009234020375726258	-0.03388807304322364	-0.008185369179642021	0.01016222246734725
0.01316833471297906	-0.04650391383381105	-0.0307786765602064	-0.02439183513280403
0.007580258908800807	-0.04476651767818453	-0.06519816055055759	-0.07367494933696628
0.004118454320221907	-0.04583697249691709	-0.05274681764032076	-0.04958252855075267
-0.002451632895038473	-0.03921725088802927	-0.02799487694015213	-0.02264171837303716
0.003988593094369931	-0.02810637205839275	0.006028932244731078	-0.02911498879017756
-0.009601049086139329	-0.03168277467230665	0.03732741906376713	0.005770973885176336
-0.006106297920656153	-0.02350413556060917	0.05122844628029432	0.08292670174839464
-0.004290265145663054	-0.0163672373966552	0.05060317525950207	0.0601014147531046
-0.01247250221726768	-0.02761989891285562	0.06300641889293379	0.01593008867921871
-0.0141316704049645	-0.01763975257802603	0.05221572843851255	0.0312585650222226
-0.01261404326354877	0.008705761203897724	0.01017124280012948	0.04175702572538378
-0.0006170945229679861	0.02769120396058987	0.01248062887811075	-0.03750309925176258
0.01050436445475291	0.02368729440464324	-0.01041186391241776	-0.07923906081459578
0.02566643464999136	0.01557226578838682	-0.03926608597898017	-0.038109312318007
0.01817970873099183	0.002400745608219189	0.001917556406383189	-0.0439982448144451
0.003793159387835799	0.00912363877471564	-0.002555956679365616	-0.0180198456326552
0.01164505448524946	-0.008337853468521995	-0.03512020450649395	0.06563624124935218
0.006852845791306317	-0.03320512999891641	-0.06470685794276886	0.01919386274386197
-0.0008898444936940365	-0.02706494488649647	-0.05368777747443729	-0.02548553613582435
-0.01141967881237936	-0.02076379665231527	0.06064616565803647	0.06545205848658273
-0.01968282218189618	-0.02009872410711451	0.0478798973084916	0.02421201346174732
-0.03264852135636361	0.02916705050893406	0.01035135091818131	-0.04506406566263119
-0.03174078984575553	0.04951763285022275	-0.009583250339393432	-0.1260301210843101
-0.02656910350393782	0.06957769611038014	0.02661265506670801	-0.1288800402587001
-0.02203022255245977	0.08456064740823811	0.06911235130795876	-0.1123010982641055
-0.01169023695515575	0.07239384085967086	-0.006072195150697046	-0.05117470153379388
-0.01164796704724516	0.04606178022872066	-0.0431700009979178	-0.04188189474586321
-0.001414120935615836	0.03372824044804024	-0.02056002354420466	-0.01068663674949125
-0.006730962680056318	0.01716218020136842	-0.01189360282052037	0.111741560657201
-0.02409962865487607	-0.01165877006269061	-0.01672168471756413	0.2208168536449157
-0.02653485935624876	-0.04584288849367225	0.03601458363629983	0.1016447096735321
-0.03046146252660589	-0.05177505981271575	0.03610006991701422	0.04983841311900069
0.005870712554618926	-0.04313540513204381	-0.01730489385305275	0.04245494503387127
0.01941547914461062	-0.02835561468515595	-0.01250389202653445	0.02559502628657381
-0.004612581464607353	-0.03163484835120443	0.09814146710186054	0.03396568181890156
-0.04579508179329663	-0.03075731947203836	0.09984302369903453	-0.01462096616580269
0.0182953409479344	0.02123214201788862	-0.02408623072038316	-0.1285279113313009
0.003185962080215985	0.01619017983736306	-0.06131538767223883	-0.1090223593523006
-0.001819904306513557	0.0181828095280414	-0.03961318787908005	0.02176303087958456
0.002646680933345863	0.01688049995293663	0.003690534153847178	0.08491952091337288
0.005335879498903264	0.01744353307219708	0.06957703522069275	0.07177123835456864
0.007452250652641454	-0.01330152205180517	0.04687922294235276	0.02929588241836202
0.0002927714318770851	-0.02638843188238921	0.03836724505021315	-0.05235733252664813
0.008350261656362858	-0.02395704913724898	0.0299890406602711	-0.05592148860592696
0.01059612413481929	-0.02186204318096906	0.02899581884961349	-0.05564599378717089
0.01762379423713229	0.004438175196869247	0.01400456494172293	-0.04707991024502203
0.02242414806505514	0.01703381707744093	-0.00942262220527681	-0.03971818901583485
0.03996981728662204	0.02446443082438984	-0.004479320932421609	-0.09813447733342716
0.04475828447150348	0.009641965024913915	-0.02457996493888108	-0.1017898789567919
0.02857649875538066	0.0139575283581142	-0.03659283279324602	-0.0721329183968395
0.01579966542883701	-0.005378683955724683	-0.03886951010313206	0.009496075954511551
-0.0104025629561444	-0.01328948630044374	0.0004280071857154101	0.1211295750164258
-0.008937730519172835	0.003116832970194453	-0.003925375001913373	0.07398705846194169
-0.01379770709250879	-0.005395844414203057	-0.04271570383499076	0.006733546602938502
-0.04046860540266738	-0.01217647068472527	-0.06594083855573968	0.001525468690299838
-0.01658506620431263	0.01207099541334993	-0.0817675723943619	0.03421821626958701
-0.01900364692384176	0.03948479389304122	-0.06065543486114434	-0.01525183589415929
-0.0203715635658635	0.01943945872963435	-0.02452805654340415	-0.03001909176699456
-0.01353046396428218	-0.03269033762826331	-0.002047711699555745	-0.001673910122164612
-0.002752021839666976	-0.04473405437729648	0.03735701167167486	0.03822996847380909
0.01092561379021918	-0.04267385314571975	0.03868759166898393	0.04601154419491763
0.01188753875942581	-0.0567306396254505	0.03133084226975281	0.06549228189578771
0.003711761224989434	-0.03904213145160159	0.00988847403798572	0.06741116916589389
0.02691235338260227	0.04397965518800299	-0.003343681770206434	0.04285958805300279
0.03344575407289488	0.1021774122761282	-0.01874459439006967	0.04929614207133703
0.01811663197079067	0.1033880305166566	-0.002115646292225062	0.04805288105358484
-0.008223081965934066	0.07392286471083415	0.02598110202909899	0.03248529506852206
-0.002628983885209196	0.0641669039756588	0.007369232073876368	0.00787802445454368
0.01006909167120919	0.05285414139723065	-0.002912889170972257	-0.01605643654435802
0.01288985317919376	0.04582064179594784	-0.04750991128633422	-0.1271730547225077
0.01592074302268057	0.0140051128722248	-0.06572362384942496	-0.1377408594361628
0.01534958895759066	-0.0104152339476638	-0.04913259004404573	-0.07512431817478181
0.00652071810568691	-0.0387591504669963	-0.02179931459252979	-0.01047632131434038
0.004195246285149228	-0.06362861113594039	0.03505510842779071	0.1574999587320575
0.009680070778045027	-0.04516836443640765	0.030759693161132	0.0884928101906384
0.007611030736441568	-0.02539694151081333	0.01325514005750551	0.002220733716632056
0.0006110812519396654	-0.03051497154672343	-0.01228736550366845	-0.001672848228848126
-0.01177815061568	-0.0420185134452903	-0.04889913973265098	0.0163877821163294
-0.009138632484101225	-0.02640623487094835	-0.0325993396126241	-0.00422742050265647
-0.008533809435238203	-0.009821171826961145	-0.009643054941846812	-0.04420127164794143
-0.01273003427553391	-0.01226187047148233	-0.01319097278062243	-0.05287289610522004
-0.006526608520769777	-0.01417606124996439	0.04946014443222653	0.0417636926137072
0.0004273441662736627	0.0001311700499417782	0.05077462994683753	-0.01038991727221663
0.0008902445687591657	0.003464900137651875	0.00487645312772859	-0.02405703595871769
0.0009822365455012948	0.007118284778668384	-0.02733105701579429	0.08292127304998735
0.008178261616984702	0.01050308271089856	0.02306605798735353	0.01682839974240043
-0.01296124875630276	-0.01519258266351715	0.05251893185445871	-0.009969977386095447
-0.005645674497204173	-0.04395994872207045	0.01408641863709282	0.02185560547182583
-0.003185951963245041	-0.06053187917489748	-0.008856332211996819	0.01807054274553289
0.0005150892203915129	-0.06524036631739982	-0.007653083032911474	-0.003231569560677258
-0.003376027659823322	-0.04238587892528387	0.001531024331319665	-0.008098738945329238
0.0162777652112502	-0.02591124234613631	0.01333268908791319	-0.01898193131971718
0.01178773742631307	-0.02980839196560794	0.06942257741272786	-0.02705627095685687
-0.008794483636514095	-0.04439733350842279	0.08931175260855378	-0.03577240648709362
-0.0001411258277328829	-0.02912071064177463	0.05257404177877888	-0.007870966462360691
0.008899386208152111	-0.03023059595832509	0.01242782629583737	0.001196819415129712
0.0147611288143471	0.006019385570843749	-0.01461056257108794	-9.329799339542928e-05
0.02232167572577248	0.06172921221604885	-0.02392031013157477	-0.01081313653416249
0.0228085480596024	0.1142687759771991	-0.04347731678559467	-0.01002020840042613
0.01071436203547846	0.09669640780573145	-0.008601606621783001	-0.0053683541507212
-0.01703295166015497	0.02558527072247325	0.05401613836082245	-0.004050037104599282
-0.0212402723486285	5.639769021042651e-05	0.04862975664128789	0.007980234161245006
-0.01659630452689266	-0.00880483575417474	0.003280515291800782	-0.02789524481108076
-0.01366675472804927	0.004847553616692282	-0.02991377161478743	-0.06344748668315742
-0.005441118820278326	0.02786253924494971	-0.01476130486822283	-0.06172325293162126
0.01052972940905021	0.02351827291313469	-0.05946231282892381	-0.1240170240541405
0.0143706096974869	0.001934958849538724	-0.08715800379255784	-0.08567233007092624
0.01073921470306141	0.007476951505898989	-0.04875050225772336	0.05411658790106656
0.005454409311885369	0.02552607437377536	-0.01301569891437063	0.08945738542926468
-0.009686857319213709	0.01264865916652801	0.01941355574411453	0.02420848428717549
-0.03681196040125919	-0.01121727692936332	0.1128140565296106	0.03342481246673087
-0.07021377500975465	-0.02709182513288122	0.0283290148118916	0.02471302127202846
-0.06371413028296111	-0.01681026237554468	-0.02728448755520686	0.03465624232919339
-0.02778921806874186	0.001850785983410588	-0.06451164686648024	0.02336933212892034
-0.002586351787347206	-0.07126287285134277	-0.02321329348718379	-0.001190063225677807
-0.0006982972423564852	-0.05897852325698996	-0.01544831079308077	-0.01187691615866487
-0.005742097731007806	-0.03832200485127586	-0.0005406991646652798	-0.03026473866792564
-0.003953246353241954	0.01720704165053947	0.01969503490466813	-0.05769189011163035
0.002679780280701618	0.06749186675997068	-0.008686171914319649	-0.07889850650646799
0.01286022359353326	0.0739405671571436	-0.01911945325731788	-0.007008355265554717
0.01517765706441874	0.04559953835748044	-0.03797566138865443	0.05538934432991991
0.01587647244657915	0.04609243175060923	-0.04320923022322309	0.04818540663975759
0.0122954050517988	0.01988088058168502	0.006548487918798499	0.09035516264034331
0.01464058839355342	-0.02338219108292668	-0.02034160777411266	0.1267553229984988
0.001539109633243356	-0.02386901003427631	0.002695979868461093	0.02028448747979613
-0.003240486494643	-0.02410593008430678	0.02738769706514792	-0.03862553985505076
0.0008265393867319406	-0.00961087806629872	0.09281355264547884	-0.09395637391930789
0.004735378755961105	-0.01214233469426632	0.168298753861008	-0.01606669378274242
0.004532014275107684	-0.01389306903005729	0.1162726753001247	0.04040833037944393
0.009380145555627641	-0.01469740609394196	0.04918095176314929	-0.01541304882869041
0.00627094160710375	0.00636641364470248	-0.00175254145439048	-0.01315262815013207
0.01775704792628244	0.01702205045577256	-0.0222518168366827	-0.01079144843678321
0.0181965281003099	0.01537433193345558	-0.02771015968875403	0.0110599969243944
0.01357713749149103	-0.008156612743808299	-0.02682414422839157	0.01011090972759008
0.01694768327630154	-0.01082266764465308	-0.03788039071100544	0.01953674426932208
0.02833041806404831	-0.005639203143052532	-0.04502119051534849	0.03312603510439318
0.01919796080397861	-0.009274298606505761	-0.03634068902409533	0.01488540176321838
0.004492027859278844	-0.01809267083471357	-0.03932563908014509	-0.01066789679549602
-0.009302332865025263	-0.01548660364600875	-0.03182769610882773	-0.01189466832990932
-0.01568497401559229	-0.01493685370679864	-0.01733326880593834	-0.03291475493828601
-0.02334407759316921	-0.009681337739960688	0.001682422522913177	-0.01822659994373771
-0.01606336460617875	-0.009316666801425972	-0.01015256920625487	0.0332077122524751
-0.02466700170473618	-0.003947240916933661	-0.02872261705648783	0.08597989229249749
-0.02283186055967148	0.01266930469798101	1.263538758437084e-05	0.07534738650800811
-0.01586995224152343	0.03964313156628626	-0.005781086707254973	0.03814683677580158
-0.008008031535617638	0.04594403285996695	-0.01392438805709834	0.0002755622717753124
-0.01013694614745876	0.02080384066349599	-0.00153677549294694	-0.0473061315215551
-0.005081813472894345	0.01429027802913283	0.02714185804050444	-0.07482710262959689
0.001434387719833428	-0.001757968162498661	0.02846255338526587	-0.04917807352892165
0.0118742920225928	-0.0693598828105936	0.01339768008539098	0.02757130622441084
0.01611322995176557	-0.07698610261906828	-0.02409903288934637	0.0486686994687664
0.01372018312487545	-0.05080562850911591	-0.08325500320984422	-0.08218396802951249
0.02422195203479813	-0.007696239462160982	-0.1101266614084163	-0.08645250650029511
0.03686486450017489	0.01939187198587215	-0.04207474372197609	-0.07162862796352394
0.04084098228665685	0.0272100081080292	-0.02128950013802404	-0.008630771952388231
0.02470977693251491	0.03370623923220668	-0.02806151978105706	0.06332514545676809
0.01494624695564663	0.05855871516730512	-0.02402992740802324	0.1096452962978226
-0.01404722190104992	0.02386294292131399	0.00513143120193118	0.08114179946128096
-0.04014698077855865	0.008386164684097716	0.01494114353546061	0.06500812878005499
-0.06261343729787662	0.008441448832879313	0.06268632040356281	0.04259770457872163
-0.06899974136872443	0.002621945313464137	0.03549722779542556	-0.06858327244203151
-0.05610309223787915	-0.02622473129818925	0.03208540187941424	-0.08205513526529422
-0.04355430945202145	-0.03638137094363935	0.03652402835233729	-0.1316554157773332
-0.0149254299959028	-0.01192026122434263	0.015357183247205	-0.1357577019684004
0.01057010141732826	0.0530339516780035	0.03478970372489339	-0.05328065843099321
0.03483727914399407	0.08315388341363847	0.04715828616735535	-0.01012315867859378
0.04469249470236002	0.08532480726590226	0.01779912962544991	0.05411097071247958
0.02465206426630868	0.06075640868773784	-0.004523701914256303	0.03431531264123078
0.009626980033354998	0.03859832394936162	-0.02347140459732551	0.0275340251494872
-0.008241508302428957	0.03165661069249842	-0.008760623222549524	0.05868204133746931
-0.002198918031629544	0.02514166401768895	-0.01374030208177198	0.02484261495384022
-0.003599822682420544	0.004191036821493657	0.005870948712858877	-0.09839463815427844
0.007427584549897013	-0.007187953876661938	0.05008575952245509	-0.1293808093298005
0.02689577501338417	-0.0002073907020048855	0.04845074679413896	-0.1070585949227018
0.02288331001846128	-0.01589512788326625	0.006630793628184592	-0.05092244220140613
0.009333064715573451	-0.02939889475804431	-0.02913402297100618	-0.02328391545832565
0.001486242257230957	-0.0376479230968307	-0.03160018597449554	0.1663390545140097
-0.0004973888663976221	-0.04430184670446392	-0.04014941689425241	0.1217977204410194
-0.004134924148587789	-0.04541141493543881	-0.01424201207254478	0.02332555263731989
0.005494271486444865	-0.02058680172909009	0.06836913710807913	0.06923992422651115
0.00938210275425984	-0.005442624619393632	0.1338485513846638	0.1682558015174997
0.006560038438273125	-0.01652088343241336	0.06090473744132949	0.03475557788829827
-0.0005186941736759741	-0.05941110574887815	-0.07893102283519948	-0.08044791411486391
-0.0121708869234091	-0.04819957595553363	-0.07424577933481596	-0.01086201392345586
-0.004756541840178906	-0.02701930893786521	-0.08635764730152616	0.0486651025168965
-0.001570284393460959	-0.04587170362894842	-0.07192944486984718	0.01248596059881879
0.01178648443565955	-0.03440829761259834	-0.06566455800786249	0.0137702327804425
0.02719291462100759	0.005580140977132013	2.41110518418456e-05	0.1150269563112413
0.02757922909972815	0.002940707063414644	0.01791376955333535	0.04081991461228716
0.02990453439428624	0.02406354960365326	0.005545082509331823	-0.01139716626438336
0.03949371131254267	0.04663319878467393	0.02589107310224055	0.03194892670991449
0.02102711748086435	0.00142043482774582	0.06124882629294573	-0.01182728184184746
0.01622684995210499	-0.007308874627090029	0.09063470566615671	-0.007108309595011173
0.01062870758822093	0.002167670139834767	0.08970817229096877	-0.001247399284283422
-0.02280167894014767	-0.0182462194562418	0.07826416496923431	0.0329486210575376
-0.02155330043835238	-0.01960470693431461	0.06772467338173251	0.05267539592422626
-0.005451975235632094	-0.01482163974295283	0.078212268123855	-0.01149439186955138
0.01466795092762513	-0.0159152876008393	0.03497269384612486	-0.05076134659824638
0.01898380559118895	0.003151130998105515	0.0007579708721296484	-0.06313396437396243
0.004635864992412847	0.002416350005348715	-0.03647934148342606	-0.06370364049107483
-0.01674723189617911	0.002904982704513114	-0.08893001668163085	-0.06262566965209866
-0.01392695579857612	0.002204501190762186	-0.09282157625701301	-0.04349933943044643
-0.02402365613501287	-0.04979910230885925	-0.07173955913540582	-0.03451329524691282
-0.03024168579636738	-0.09402383767679769	-0.0565855302290611	-0.04538835935392233
-0.04241229402174009	-0.08793856705546929	-0.01302651072591175	-0.04440702587104237
-0.04959993661052933	-0.05927198963191364	-0.007356354700877052	-0.0296462610682191
-0.04643209520996867	-0.006156591679389458	0.01150142709673321	-0.05092786729433095
-0.02938860940668274	0.05173960458105227	0.02010754878495004	-0.05227605411044917
-0.001272952630301091	0.1165921859987502	-0.004974150960940993	-0.03737609556791512
0.02210023971988787	0.1233025293024406	0.007810204367566602	-0.003699461708872627
0.01762008837669821	0.07800610678765074	0.03030853789294045	0.04184757364355742
0.001541210280476218	0.0215497361533172	0.01880930784263395	0.1613229786892192
-0.005091765370884286	-0.003982624418916396	-0.03226557943041908	0.0996414665691827
0.003360914829475961	-0.008582217942582215	-0.03499811141770607	0.03928171057601144
-0.00439709310723616	-0.002939236185548769	-0.03806930751098506	-0.005992909033554976
-0.009541053320997936	-0.01243136242002016	-0.03204743513077113	0.001442777766787242
-0.01026046537151397	-0.02484966323786721	-0.04758808950671731	0.002292437875848194
-0.006055195206805151	-0.02342082499300914	-0.05129312633997887	-0.03003689912062524
0.002495338384178935	0.001647365207473218	-0.03260581894468533	-0.02969030703142459
0.01574380423827355	0.008235072514697222	-0.02361371203734732	-0.02346396901999217
0.008290302401399857	-0.0006810170632526139	-0.03244491716730495	-0.0292755571532751
0.01007520397889227	-0.02136021919035095	-0.01126096630671929	-0.03124989770405321
0.01226498610882252	-0.02843085762609042	0.0179606582448559	-0.007286949219608171
0.01596469162598601	-0.02947671941721803	0.0164639907306219	-0.003385767326043091
0.00230696523513723	-0.03358872853858019	0.001337714433196218	-0.02884367803509452
-0.01011312119860697	-0.01124445612052891	-0.01746784190825906	-0.05485979357452851
-0.03422215817248939	0.02428653716482892	-0.002105528271997473	-0.02745457345325356
-0.02341070980365691	0.06287247174102521	0.0432351805822478	0.06625671489252291
-0.002383434078062571	0.06472116485578372	0.05499361226317848	0.06201931429859518
-0.02581713532453481	0.04329397233600634	0.05815957607885242	0.0381809736190923
-0.032257498701141	0.03985491464899237	0.03894513019242675	0.1354293838479989
-0.02030782971729521	0.04547815810394212	0.03486631648327965	0.1306978675624316
-1.335074715929892e-05	0.04874437801601383	0.07156576041118251	0.01293343855066152
0.01981538809059307	0.07746215921809095	0.01648649722418152	-0.01866684458395692
0.02980366250588717	0.07760775491822787	-0.02874650547735021	0.03593743291052547
0.03357034770298526	0.04031902418612812	-0.02042008144969719	0.01568238548467869
0.03684896746182845	-0.0049250010555187	-0.02983754569622882	-0.02603618827376828
0.04358929774018344	-0.01551173158715276	-0.03855724906250783	-0.07522514482845094
0.03762510349522633	-0.00977798849172172	-0.04630333808457365	-0.09245994527661079
0.03992953755109199	-0.03334130861231355	-0.05589788993880523	-0.09277618845740934
0.02172138239448578	-0.05473310008059794	-0.06879789764168275	-0.06128842971231142
0.009388357654186523	-0.05066078679895857	-0.04481004850023886	-0.06962241467966644
0.008269722150369769	-0.03210517455742413	-0.02020725393778071	-0.05297956753119996
0.005969987835079676	-0.0170367673425811	-0.02996779975514906	-0.1095318468390887
0.002264190126067394	-0.01802624835581602	0.0177875717574977	-0.0732645111860324
