0.004897658415429058	0.00400276795229181	-0.004030674705564099	-0.001102818897808689
0.003445898281093579	-0.004977279261645989	0.001011778910924142	-0.002246669291372596
-0.003934055613256024	-0.009832629202943191	0.007322705864480856	-0.003097412687138495
-0.002250390727032483	-0.00774314838926393	-0.004610484627631035	-0.0005399636449283825
-0.00326782476031471	-0.006242822498831272	0.00257599094660501	-0.003321035039845393
0.001588916816642371	-0.004886822361803439	0.002080411181695946	-0.0007697264812368837
0.004031482743386044	-0.006829893399893414	0.0002052200759269395	-0.003671393120126288
0.002544610960102552	0.008272540114443425	-0.0009178332995853839	0.00283787506461691
0.0002487146202824664	0.009279032145176204	-0.001684008204188872	0.002217090510959236
-0.002094658492478435	0.005403508541494375	0.001140348502801677	1.410862313531194e-05
0.0005557339239531726	0.001770536049387936	-0.001880569330274614	0.001252163946157639
-0.0009745968150549597	0.00164504932581839	-0.001824505291606974	-0.0005625322934736465
0.0004255048439737306	-0.0009166517456129877	0.000483886547009605	0.000613738957479337
0.001493509548236255	-0.008172844577151032	-0.001363777514669961	0.001421460535317623
0.001969488674922665	-0.004900944328119377	-0.001477326523502036	-0.001479314617465958
0.004313584507498277	-0.004578554196522792	4.409928306803896e-05	-0.003818305912210638
0.003567229209590598	-0.0007136959059798029	-0.0004713321215984883	-0.001009155639845605
0.00240728525583648	0.0005699565553505101	0.0002191911738756939	-0.002757923557150653
0.007062592356273826	0.002679085138938872	-0.003521163662383151	-0.003122833356297416
0.001165977399474561	0.00684541845986932	-0.003617294105195457	-0.00027628158613308
0.003038010262890215	0.003522879080326984	-0.006779679265768126	0.003738918162810979
-6.254771244223426e-05	-0.001066161542084826	-0.004696349590898332	0.002338837713252888
-0.003403082916744061	-0.003749713995662021	-0.008655581193242877	-0.001263722614933615
0.002875279108982795	-0.0002948220094277824	-0.007087029070400026	-0.0008647805039214596
0.003039923125476448	-0.001360592362164848	-0.004397750922823808	0.002587443981831652
1.383332263017306e-05	-6.891626085069544e-05	-0.003816241161680159	-0.001647737393408152
-0.000503287059001528	-0.003252107566432837	0.007901587866353968	0.003986337359813987
-0.003942063630614793	-0.00278151489636007	0.008510514412644186	-3.585469015313326e-05
-0.002053821994757627	-0.00554419668242616	0.003776558081548909	0.001410543997756343
0.001664026211216423	-0.005521679429504679	0.005438901730590971	0.000362358003687973
0.003801624729254775	-0.003130631374757191	0.008966391736303047	0.0026195293055216
0.0003567514424766214	-0.005764628120903986	0.001958992153467004	-0.001304371385275348
0.002431146691111505	-0.01056760920660135	0.001493545759379127	-0.002820144703995895
8.077965085009113e-05	-0.006023796745782096	0.0001069368876491077	-0.001616236105409569
-0.00310944208654292	-0.004091920114181061	0.0001205492019272537	-0.00409606663907078
-0.002670764135439082	-0.00547248643904391	-0.004227364922444044	-0.001924234061423709
-0.00260193408517956	0.0002875772712233792	0.0007342342372229299	-0.002406028352798655
-0.00124251577641469	-0.003884858280846576	0.002810879878987055	-0.0004685306889350137
-0.0002070041747938963	-0.00210212129275853	-0.001220730541932597	-0.001900096421396897
-0.001803691321894741	-0.002165909551691517	0.001886468721112217	0.0001672627351775569
-0.0004978635632630728	-0.002368438131712957	0.0006054866693190371	0.002892264335088891
0.001041649080807259	-0.003951607016316488	-0.001861665227461658	0.0008607876607463668
0.0009348830649930898	-0.0007604162160933972	-0.001281174879807524	6.565377468193491e-05
0.0007423141359531843	0.003687146486915082	0.0006968154266072106	-2.594914296477945e-05
-0.002048934489700749	0.007098872463583301	0.006492608128958834	0.002267397345583234
0.001121845144096153	0.003610149533506157	0.004372146357246071	0.004538210892398742
-0.0009115742126756731	6.515030870864006e-05	0.003900611879528653	0.00312271535770112
0.001057807734469615	-0.002925416448550293	0.004787168742587863	0.0005446700590870256
0.001462635783959769	0.00377517829080948	-0.0007350917890264218	0.002833652155543555
0.001120144290743431	0.001395236180313023	-0.002694123323343917	-0.0001744699537831317
0.001859595379679636	-0.002015802038515524	-0.002871927527912748	0.0008828063970568836
0.006490084173028791	0.0005059580190827591	-0.008424868690346341	-0.003294371121960669
-0.0004565761524194495	-0.002510481839029219	-0.004183169892230599	-0.002071490677432124
0.0004262203319966601	0.0004844369395132412	-0.007107210978971588	-0.00279078254183854
0.001804234779309934	0.002083059115005268	-0.005400112049968512	0.002449760190326379
0.002579943585121985	0.006173217911484443	0.0009492670525122283	0.004740627246513418
0.00339090111431248	0.01000330959143589	-0.0006622057221352184	0.003552150346549293
0.0005795105980629398	0.006793995169575463	0.000670315017461431	0.003324764088257078
-0.0005197756391000792	0.0004438846218909632	0.0009384290078619672	0.00270393568989595
-0.003638548046284773	0.003296323217007539	0.000754038349389774	0.002728138452087477
-0.005935218007222067	0.001644885666683532	-0.001686497910155704	0.003582928102026782
-0.00836051307304702	0.002603266366919396	0.001042944329100625	-0.001175577005400401
-0.004852599214039313	0.0002108126982240043	0.004369759032602502	0.004730417433250032
-0.00614000113613531	-4.592940397110946e-05	0.005240125555664046	0.001032059303014727
-0.004789974085794484	0.001947924577294743	0.0057576859883111	0.002799120695067882
-0.003497500987997097	-0.002524337016933795	0.002830496525393488	0.002738928862429104
-0.001735364307583412	0.001730327279281169	0.001390967219806721	0.0006711079604078034
-0.001871022475881425	-7.777460536740279e-05	-0.0006562826622780057	-0.001223243871511077
-0.004691319155370878	-8.372124317122456e-05	-0.00206568722068634	-0.0008099166187780948
-0.001885028559595822	0.004323649052632569	0.002604898614741476	5.77381506299977e-05
-0.003875712145912399	0.003591963579288854	0.001171944837134245	-0.005653667524443962
0.003395601897948037	0.003560476351499928	0.002983923493169006	-0.003119486469848244
0.003110885217789786	0.002414634298757071	0.004064656559145963	-0.0006292651412507917
0.007923935217924906	0.001712603371582145	-0.000931366297115212	0.001326653997172193
0.006532372277723862	0.006359965562181176	-0.0008190711615794902	-0.003469616096393997
0.008112207147512712	0.0001821035734346605	0.0007629291100963761	0.0006059367296563946
0.004247409029645383	-0.01076887854571578	0.00268001957277812	0.001884980939412414
-0.000697255708861322	-0.01267532478580565	0.002489693248944853	0.001980882701907784
0.0001007715843654925	-0.01290210318524632	0.0003729799560704221	0.003863629004228553
-0.002212159107256016	-0.01199762324137247	0.003043468438650541	0.001890880826502499
-0.002854278397513182	-0.006668848113590574	-0.002163504591372607	0.0002912919211363672
-0.006241787372893525	-0.004543698928201534	-0.002153062339392283	7.306631086986512e-05
0.0003764634968886824	0.004059546158072424	-0.001425652782082986	-0.003947047011515656
-0.007724933434555489	0.00728168126793927	-0.003675780145974463	-0.00135092859505775
-0.00347458382073141	0.008246648713828552	-0.001350305886163809	-0.0006463778833248172
0.00113741352491184	0.003718507575444681	-0.002144572202883833	0.000542577117109905
-0.0003444875960969351	-0.006895075886696483	-0.002774657068678128	-0.005296280176268573
0.001404779212883222	-0.009924133858506625	-0.002764085778007029	-0.006125001577481224
-0.002342792368113435	-0.01337336875308616	-0.0004182556879533717	-0.003723007657216116
-0.0002065806552528091	-0.009170205069096177	-0.004960974195573039	0.0009503834136141966
0.0007057788065926239	-0.003225190154664907	-0.001778344602609739	-0.002185875170123358
-0.0006453113161813027	0.006030506930414258	-0.002773014047699848	-0.002344058832155802
-0.004019988854675358	0.01507157410086532	-0.001704194190600802	-0.003080289481736094
-7.600017803789903e-05	0.01551634917331569	-0.005501362372026321	6.392541030211479e-05
-0.0062265516515226	0.009220875194831848	-0.005606240039745123	0.001523800678972313
-0.005876738266868709	-0.0003795340855777445	-0.001797181431926475	-0.003079717655455086
-0.001952552286822354	-0.002084798583383924	-0.00085749007236842	-0.001496519117134207
0.003839205491717614	-0.002931514016608566	0.003341636737873646	-0.001932551628962353
0.001073916749339505	0.0004370310781134909	-0.001887715640248624	-0.003308386795192864
0.002399012545468242	-0.003580104784925309	0.0008863621223721841	-0.0006995703723278813
0.0007723547974988409	-0.006571711623973632	-0.00148756224990736	0.003653569057492747
-0.0004722344116117893	-0.007789823719882843	-0.0004769906608722845	-0.0004718114735612253
0.003605078596789921	-0.01446943487859083	0.001737154458115608	-0.002746446656884553
0.003865474271630075	-0.01409059461505758	0.006293082937474005	-0.00192180183222306
0.005672441192850647	-0.001743531911164316	0.005292768351141531	-0.004239868361839662
0.004914598336086312	0.005794765346923451	0.002408895253825503	-0.0003274083415786507
0.001946985391490701	0.008039622643145282	-0.003872750399959081	0.004015019024602859
0.001183593701246887	0.003974931637609064	-0.006110124834830774	0.0006540405889662416
0.002262889619288358	-0.0008156621155338959	0.001138550473823855	-0.001232065589290218
0.0009478428308352694	0.0153287098305304	-0.001761159115146201	0.0009630876558074888
0.005113799876455301	0.02917431409332339	0.004868269373988527	0.001604567365112141
0.005953461788818788	0.02118143919237162	-0.0004622681499697088	0.003185055742663708
0.007035583855353769	0.01208889290417853	-6.649214043650245e-05	0.004465706534833946
0.002113593481085039	0.005226819874497807	0.005886186268355512	0.005054720303188238
0.003068940725864945	0.009236648803619829	0.004350061183329488	-0.0004213489350019407
0.001504868662917138	0.003286907880113563	0.001780554035553399	-0.002416589024390358
0.0008858601852190606	-0.0009712351414896157	0.002270919871543071	-0.001396157103473824
0.004101820697628365	0.0003746910703566677	0.00252674503968083	-0.001266460487735346
0.003648679249886841	0.00251482167844211	0.003658402816529655	0.001571500489795465
0.003120288969208315	-0.001863411065290717	0.005582744656894022	0.001777124762507111
-0.00175727851201774	-0.005247315592381305	0.001746068625962718	-0.004754145270038048
-0.001834978118859383	-0.002920402794687275	-0.002850162821671327	-0.0007897755351574871
-0.0004314875450682266	-0.003410037748780228	-0.003870865020107203	-0.002388231909766001
0.001373710689784031	-0.001803007220767422	-0.004814442405941087	0.0003264481914257718
0.0005540179091378553	-0.006781670999165619	-0.001454337576597389	-0.0002905422501724076
-0.0006991656184365441	-0.003829093412974817	0.005550267778775804	-3.265657093391539e-05
-0.001746608305755084	-0.003805303023503597	0.006086908249461385	0.0008032107259242052
-0.002414447478282404	-0.004935003495909959	0.004752941530465656	0.002131823286547773
0.0004640974445079187	0.001844740444203623	0.003559443002416552	0.0005403535749705079
0.001144685936130617	0.00376332096528364	0.0004246417995703657	-0.001169674538895522
0.002408553470964455	-0.002368337102494556	0.003439300843089898	0.002571478581199689
0.0008279518800144427	-0.005958208857209249	0.007681789011954545	0.002674482770239053
-0.003073632361263822	-0.006156701159506922	-0.001739787976524803	0.003401524297028093
-0.004638416746609043	-0.007167901978607484	9.031294296651954e-05	-0.001262525620999552
-0.005789658781528634	-0.00443847266480757	-0.003175222520753867	0.001451559178469019
-0.001716921539298512	-0.005198889007030755	-0.00244250969765711	-0.00246842765334502
-0.003082450629300187	-0.004487168193121079	-0.00156850387188323	-0.002014829816633124
-0.001771978265419266	-0.003724124359420207	-0.00129158124316387	-0.0009870118553882937
0.000887114149227207	-0.004175006982224958	-0.001025250381065847	0.00178295138625402
-0.0006110316672683913	-0.001486604272633232	-0.00374696578461761	-0.000886853160867922
-0.003313778293313136	0.001973632767094225	-0.003613261057648396	0.0009571232789365758
-0.0004922392563521839	0.0005863704771442083	-0.004660995181387307	0.00108914938246522
-0.004336428449163969	0.0001804676978558738	-0.003579253896496652	-0.0002220984894076854
-0.003267255140710667	0.001182309988833185	-0.006263851196656751	0.0006933149778976048
-0.002449328459053938	0.0005803437310065343	-0.003922149294012738	0.0007346570718574257
3.774411179571925e-05	0.002935803994425074	0.0008065526357751657	0.000429884598895254
-0.0005598738830334791	0.002354754592751126	-0.0003028293481824134	0.002990155463604984
0.0003275336003326936	-0.00189521225665616	0.002171812628340678	0.001385900005283467
-0.00226276843304522	0.006619328006771332	0.003969316732962333	0.003357236067687783
0.001142675246947839	0.007829243125710263	-0.001301414387134856	0.003643629703169109
0.002565092747081216	0.007891426362308563	-0.0008644728415122233	0.003253899827890929
0.002605497223734468	-0.00118973658943639	0.002725796752417293	0.001050302038955631
0.001819823996995353	0.001501066280844099	0.00200041894471727	-0.001711106025736419
0.0004378371542338928	-0.00594960958961763	0.003410384117121593	-0.003125388841478919
0.001706121360992259	-0.008109423372634985	-0.004319894667602501	-0.002122539462912561
-0.000183318417562958	-0.009043080864490722	-0.002976268588560249	4.746521137953324e-05
0.005438604654344277	-0.01137923550031474	-0.00301100355762426	0.0006827870820967033
0.003479402761794527	0.002599969525966353	-0.00390482297261026	0.003588782442719132
0.002528328114780275	-0.002576154362450688	-0.0009104007229200744	0.00175172335409573
0.001348904010331588	0.005351316265510483	-0.00171277667683919	0.002857191754568473
0.001986627647911205	0.001462329049339046	0.001214438538723792	-0.0005517112481404668
-0.003719212962072334	-0.001048392459967722	0.004472623460829476	-0.001278540872542163
-0.002277715076326709	0.00130226573117463	-0.0004107122835379237	-0.00220206917508559
-0.003708736085301826	0.004096243275676795	-0.001439860947757557	-0.004193422658871834
-0.002993055822714264	0.007094875380249726	-0.0004095285044616964	-0.00261144366607705
-0.0004784214273041181	0.005700973068386599	0.001609832465397512	-0.001604709034292694
-0.002829131792405906	0.004442089568129008	0.002349181027660541	-0.00349921246256343
-0.0007070422710857216	-0.001215956566415523	-0.002693027553756762	-0.00336837918209181
-0.001993310596329897	-0.005009828952018834	0.004758395864969811	-0.002043227023015522
0.00243807191228132	-0.007243965685577649	-0.0009315497689747541	0.0008418502499258468
0.002562898787561428	-0.006759156777288317	-0.003048525585643623	-0.003740205403030975
-0.004056949079053919	-0.006157365814056196	-0.003018329481605262	-0.002728924491681249
-0.0003019743135718581	-0.006786268515175003	-0.003434322748548	-0.003626143210174274
-0.001485327403378767	0.002520078766650433	-0.003256497824597792	-0.004632831126743999
0.002390771252010397	0.001764318006024794	-0.003932828306092251	-0.0002043792580205757
0.001129261062254927	0.001947270888960309	-0.0004697307983490193	0.0008942555994301695
0.001826211550975394	-0.002557339227023027	-0.001967004954507781	0.0006726674686837097
-0.0003094151426749173	-0.006657997447704187	-0.002371639196722184	5.301154281986805e-05
-0.0009317663899731787	-0.006584686503728544	0.0008932674794135411	0.003921207851048028
-0.001357800471707821	-0.00370079698377565	-8.097445841621575e-05	0.001876132437301131
-0.001911149729241825	-0.00478678674772579	-0.003035405402529872	0.002401296308305056
-0.002565498818495981	-0.0004995470199450735	-0.001572086463220271	0.001528483947385454
-0.00237033736240545	-0.001558297722576731	-0.001727964531757992	-0.0009443409310086554
0.002917286754568771	-0.002622367117978855	0.001750813282784847	-0.00067425651635415
-0.001661629242502673	-0.002673432421591853	-0.00132687919325579	-0.001760747380247644
0.001557420232000145	-0.001597126640401272	-0.0001641000896905716	-0.002673422839847287
-0.003833108298568273	0.004362810081960464	0.004657955319423791	-0.002297010839468877
-0.001107544497176452	0.008274189655632164	1.288993702494149e-05	-0.001659381631555762
-0.008150838516762321	0.00494606083726845	0.001108676874625573	-0.0002042180723368669
-0.007649717063898452	0.01423935113664191	-0.00191542999074446	0.0002674841406527269
-0.004782589277510429	0.02555766827546373	0.004344462457112894	0.0005077672194931756
-0.003145385719055119	0.02168955211914438	0.004361421046667409	0.001501251571250305
-0.003372291846183073	0.0008576367201899811	0.004232243143508462	0.0007426981602868739
-0.005594484443803138	-0.003320950425145146	0.0009599643580389167	0.001459911643409528
-0.001351274775356645	-0.0009560292814973347	-0.001925161788354187	0.005711366154544898
-0.003235023170827869	-0.0003246594292031542	0.003507153674136768	0.003321081275090083
-0.0004936079814871609	0.002361586665976142	0.003966769840699788	0.001062039010657073
0.002327679908544404	-0.003235558641790554	0.0021641792258383	0.001141480680335916
0.002748006030843219	-0.000418723265893398	0.003043102080646599	0.002272096216561019
0.004676412930253846	0.008904988358493491	0.00198936485235019	0.00223723851520033
0.003649478392743774	0.01932729580367643	0.005903571483482899	0.004886024266303075
0.00448341632926827	0.02521735216760604	0.00238492495362576	0.003851279776014027
0.002513619872737416	0.007346545297861506	0.005571914400270005	0.00254125151687873
0.0008388718667948485	-0.002122015986949501	-0.002359286442758539	0.003126432383104149
0.004425022025413733	-0.006700935805620544	-0.006303270631877573	0.00198464974188232
0.00279556757269993	-0.002090118137611996	-0.003839193427041456	0.001710817105466988
-0.0003021362326894402	-0.005160869724065102	-0.0004680419537848408	0.0007502095282704191
0.002638017373758943	-0.005683025450683526	0.001644951878430683	-0.002603240537278896
0.0004892311791062548	-0.002691324407340713	0.0004595628551069992	0.002080272568816594
0.004959317303863753	-0.004877890549761288	0.004613114252697872	0.001106354788865629
-0.001028614736766464	-0.006227003288886073	0.002636225607352321	0.002028772518308849
-0.002933325144632802	-0.007336534749026607	-0.0007141444691681881	0.001637490563519289
-3.174663680705336e-05	-0.00237471863456806	-0.0005477998724033362	-0.00124926773686924
0.0007390576295235479	0.0008136224387261201	0.001234066246380008	5.077662314979938e-05
0.001065993100043989	0.000325658788227563	-0.001092809634406811	-0.001795810972919657
-0.0005222130074431716	-0.007840660525643623	-0.001273493300999311	-0.001816382781780574
0.001659129854632889	-0.00763804618927926	-0.0007620115356964045	-0.0007157276852617846
0.0006662218624169565	-0.004070028621036008	-0.005419157875114891	-0.002652560498210465
0.004150648430416993	-0.00618286146140119	-0.003516948869657426	-0.005060769028612108
-1.583855849812541e-05	-0.004188992699022197	0.000371586313672111	-0.003111733431987656
-0.0006176579171392876	-0.008390248475501088	-0.001080209232913994	-0.003922552902732943
-0.0006077533817159237	-0.005885559132726183	-0.003459555912654111	0.001499232074065361
0.003800941664183591	-0.004555279715149605	0.001451066613760783	0.002759431647712408
0.003345297496221351	-0.002558542133573539	5.385241730175969e-05	-0.0004066750836891875
0.0001137016813090701	-0.004358661682045286	-0.0007021055766047951	0.0002186343611727003
0.002866435044812365	-0.001326101576616265	0.005104262367282289	0.00133178308796967
-0.0006363623332799568	-0.0009939745247573351	0.003872362613498412	-0.00104405280841718
0.0009740646952154683	0.000136684609992908	0.001232167843588517	-0.001678168184350601
-0.0009942235871543026	-0.003050747478758909	-0.002794822467518382	0.0002165105477314992
-0.002895092423712908	0.001909535747019215	-0.005394974334460586	-0.003691356324215966
-0.001472310008984807	-0.001613319361224407	-0.002002914952503616	-0.002246839977843331
-0.002027179576954433	0.001114015172312312	0.001682307682282653	-0.003323100505433437
-0.000914907891016626	-0.002361607656283014	0.0007195202266772006	0.001926961388417069
-0.0004381042841961522	0.001446823535189383	-0.004219819978346951	7.484411836490812e-05
0.000860554029268619	0.0006572459084142163	-0.00413637202346078	0.001207594176949224
-0.001718917625955591	0.004703456546667257	-0.0001059702221097	-0.002477366083190623
0.003276916081254053	0.006197437320714786	-0.001698491600393911	0.001694155338192098
0.005390558254141434	0.002308200013994601	0.004780082886094847	-0.001424203754178416
0.006274612229337753	-0.0001515251399659106	0.001761206391513607	-0.0001416031677866877
0.004300139723789558	0.001422288929854704	0.001326432828998941	0.0007462904859294118
-0.001880227734550307	-0.000323415367989298	0.002075396952346618	0.001651637242272589
0.0009829514950700706	0.001195689333011921	-0.0007183680019267575	0.003237175408073618
0.001807122677238831	0.0007746260977040269	0.002352524003822369	-0.000786402412879863
-0.0005674073511955443	0.001005092901156864	-0.0008310505390620245	0.001362154249137475
0.00187614012789193	0.001845327946081239	-0.004804263634946427	0.0004100360211384857
-0.001706067427811337	0.001127378049440244	-0.00261354675303217	-0.002285398526104039
-0.0009521269848086882	-0.003811161518402873	0.003951314248965313	-0.002350087436359951
-0.002735657705947364	-0.002932086873845227	-0.003605247008941353	0.0007747923849112374
-0.002849584647208404	-0.00348979361185911	-0.003424129307114266	-0.0003450933659472784
-0.0001869261479219968	-0.004049637899243788	-0.003432674021952696	-0.001362546688939728
-0.000117014786061218	0.0007756711266308272	-0.005034223618581145	0.0002616892129125502
0.0007125450012297974	0.002555175443654045	-0.001551247183547919	-0.001740557244845913
0.002182507173772443	0.003332231171503405	0.0009859294959777519	-0.004342674830585153
0.001975496714613648	0.0001404907755826543	0.006723143294294355	-0.0009718362246763698
0.0008597488122157008	-0.0026170822031524	0.0006318871513990027	0.0009254859866072847
0.003381858164322833	-0.004283008030859421	0.001906966059921119	0.0001008126081801218
0.001391146649612833	-0.006798307323221117	0.003320865688521322	-0.0007179129115019219
0.0002432450256184503	-0.005450782328959821	0.003892911489854997	0.001627217960834847
-0.001171865816239985	-0.001902199242827572	0.001045013368486641	0.0007031992260379852
-0.002336307965615036	0.0009936136705469389	0.007349219848977261	0.002930194661443318
-0.003716999054243434	-0.004829715258137957	0.006137378400500114	0.002204339661929111
0.001904843410106405	-0.001197804335115824	0.002279218316255629	0.002394610982486893
-0.005634041693680594	-0.0003539721734702133	-0.0005665815104754088	0.003971024530246131
-0.006297901463046567	0.0006036035160867082	0.001705089800919032	0.0005733361103645602
-0.01036082446951326	0.001536443537343626	0.004585632880930023	0.0003148047660287784
-0.005726034731694945	-0.001318603349746941	-0.001025329603379488	-0.003924545906742736
-0.002761126095427147	0.004489702300372877	0.0001125494051375859	0.0008641144081040761
0.001988909787898437	0.01039956863040529	-0.002920991635020027	0.002086425312509026
-0.002957649025499681	0.009802895831828837	-0.002982021560326576	0.001326250249049586
0.003247517425635497	0.01405443525120413	-0.006748881042810278	-0.001151936367567399
0.003790219313229304	0.01252244687463303	-0.006748658384917216	-0.003095153312213452
0.003847726427019972	0.005691469643599639	-0.006342238340667876	-0.002426369776725664
5.985861218172171e-05	0.009408156161285092	-0.003213883644668546	-0.001366310055990193
0.0009148825795598659	0.009198332980364347	-0.002155610160914766	-0.005692660836275011
0.006482846706923356	0.003699421125392058	-0.001518918790846868	-0.000991557228471703
0.004185381455591343	-0.001514385724272719	0.0008787809182195406	-0.002551807030316609
0.005945021204155765	-0.006999534012485554	0.006554328674924326	0.001273731829879092
0.006942430350553755	-0.001836739672308495	0.005422497160095808	-0.002202011141407397
0.005454967621333124	-7.21113287768425e-05	0.001791989249575829	-0.005680459241589921
0.004198982679786168	-0.001307000554540178	0.003977756634427529	-0.005001039356758011
0.002370287946650009	-0.003833300350043171	0.005441858707871347	-0.002200745095377216
-0.002581416750443515	-0.007988118582237708	0.001179623082316113	0.0002512309528788219
-0.002460678653098581	-0.01168810082146545	-1.467381048911525e-05	-0.002724951991767918
-0.006421870277069711	-0.0158681897610017	-0.001824324138667702	-0.0001046878630463819
-0.001608644886827141	-0.01157290039322269	-0.00564498885786322	0.002208350669997305
-0.002077593368045127	-0.009236281356542912	-0.0009929335068484162	0.002885731736379776
-0.004857657554193225	-0.006946247019133849	-0.003386408937490632	-0.002811470978532471
-0.006425740536015656	-0.003031263612601	-0.001747848231522047	-0.003976393867646364
-0.003981169175794865	-0.004202197875693219	-0.002127877070548143	-0.0007956904118198468
-0.005287980205465529	-0.003565418050098047	-0.006363551371556205	-0.002001414690177914
-0.004091259675469808	0.002508522938290003	0.002139289549422284	0.001698283593113588
-0.001793334672224972	0.01700465313244858	0.007005220461870038	0.004048843403000285
0.0002964193505321312	0.01789721489353935	0.003615885230739233	0.002353617322952833
-0.0003761222847522532	0.00682216912232938	0.004841917991087109	0.003343386482702403
0.001454183572153142	0.006674202398275865	-0.0004350235078336506	0.001551572968134123
0.00113770524686077	0.004427687851367303	0.0009514543064336015	0.0007295703747823717
-0.0005456036051563468	0.004897198961190421	-0.0001985043591305672	0.002895360064795537
-0.001187127572425919	0.0003357101258194626	0.002213578992724415	0.004263961927682135
-0.001296545911012789	0.004103295549480278	-0.001205842328307108	0.003382232994511658
-0.001144750572464885	-0.0008119967329280666	-0.004559395779494362	0.001857253346944288
0.002109785388088275	-0.004301893297111608	-0.00246574517389002	0.00191696722674648
-0.0004209301849602025	-0.005717335934578451	-0.00347407267516181	0.001446638523626669
-0.001626259831377738	-0.007714215416350451	-0.00236002625298335	-0.003853712239964577
-0.001107098743116579	-0.004785339203761747	-0.005031736084579044	-0.000410975795120922
-0.001488367487056766	0.0002776829083108458	-0.001447457785115795	0.001538124340303711
0.002978989822182831	0.002206411015091607	-0.004272809545876046	0.003356347553780057
0.004396079156331592	0.0106141153730535	8.501322988361119e-07	0.0007009365587952511
0.001136370600661287	0.01438145517646641	-0.003280017928662747	-0.00046629775181932
0.005818159013417637	0.004524138979766715	-5.974080274775462e-05	0.0007396121622727449
0.004943148709333649	-0.009581446728551849	0.003159528349015437	-0.001734060536796485
0.002967076343095421	-0.01048888423113154	0.001987158987683919	0.001092067271374903
0.0006525084266150295	-0.01122830692747603	0.00102179461671591	-0.0009169513090104899
0.0004483641972881257	-0.01288784838495892	0.002646842518930071	0.001911352744300606
-0.001556607050099647	-0.006484771403148834	-0.0004904068839593839	0.001294507830004652
-0.001007599055495978	-0.007220685077967932	-0.001932607756257881	0.001492045070246577
0.0008085355000389368	-0.008355574726191337	0.0004124839583627228	0.001855803939662787
-0.007596561461650019	0.001225211081269936	-0.001292764405810104	-0.001188683047173011
-0.004370229390590706	0.0003858693754055216	-0.001670826961024355	-0.001069862579051738
-0.005349148778501205	0.00169724441650982	-0.002442870913691244	-0.0001388571418477601
-0.004375096874028674	0.001249027127151468	3.334486884347672e-05	-0.003671130866892459
-0.001426203761963117	-0.002754037210572044	-0.0007022179929040475	-0.003157828273695209
-0.004990010394452764	-0.005254600276525373	-0.002039239504651621	-0.004672531262520191
0.002120296173071278	-0.000939674324120642	0.003099587123085265	0.005720375986278146
0.0003973744404200633	-0.001810676326999248	0.003129849818263634	0.004513769602379056
-0.00054642018609628	0.001681921145546113	0.005926061248217171	0.005212023543437417
0.003280752925804014	0.003740564031726344	0.006157923934224821	0.001089728256864821
0.003185655554928074	0.008388518867868337	-0.00117000150409642	0.003093296691077306
0.006479416519500273	0.0082534455875616	3.279598540257123e-05	0.005977847979705958
0.005599890703622656	0.01098761820085396	-0.001382570026430375	0.004973357128415042
0.007747613744925878	0.01354946342454679	-0.003466206362301129	0.005450951741925108
0.004871955642954126	0.02296335188634024	-3.67608993574773e-06	-0.0001912529126959259
0.004066028470736603	0.015082311870225	0.0008494433473577259	-0.000425528690438787
0.003860608263428726	0.01117991664363129	0.0004588960105628866	0.002386489703259842
0.002982558884229045	0.009915926575232006	0.003389067070946665	-0.0006616695601523985
0.002824841576778916	0.006319332396520573	0.004242941612852998	-0.0005736910156838517
0.003451653331962308	0.004760918774464841	-0.002061793094671273	-0.0003157348533517255
0.00538518217490769	0.003440034933027243	0.0009758562154177042	-0.001050431382618705
-0.001911563303755303	-0.004185345149839699	-0.003169651278512176	-0.001578420018319995
0.0002366664219946069	-0.004039130063608589	-0.004902403946488532	-0.003365359706736459
-0.001030313953077102	-0.007204717527626931	0.0005703444811567191	-0.0008120295932904978
0.001607699793708376	-0.01017621854300469	0.002864635539053791	0.002941198737938447
0.004252818661204839	-0.01352298057181546	0.00399140336675528	0.0004862289866276815
0.0007161953102716097	-0.01675102797133159	0.001987828867418507	-0.003012679978473863
-0.001186565234393669	-0.01822506884911073	0.00457757613273261	-0.001830248462194662
-0.004694640304820199	-0.01386359577939848	0.00399936029749637	-0.0001042559191058228
-0.00934851585580606	-0.008524471361186257	-0.001574087972906649	-0.001570058363359779
-0.00601230913508237	-0.001349695642694608	0.003264916697087321	-0.005765711540863378
-0.005801955388543956	-0.006646784015411832	0.0003299064497337797	-0.0036952522324544
-0.01288649282249925	-0.005525962303813059	0.002583266488874457	-0.003212666325141517
-0.01381062553203037	-0.005164402519192052	0.002791479187944988	-0.008541997858010866
-0.01537377873422923	-0.001817535223014044	0.00387447029736361	-0.0003985115330774511
-0.006875621879078627	0.002184879166815768	-0.002748900164703901	0.00057195544156341
-3.173908818790247e-05	0.009466170062689001	-0.00322864580519246	-0.002849043981934953
0.001218786130684776	0.008361927805113618	-0.0003523507071146478	0.0001335494007703242
0.003586989598968175	0.00734433062534626	0.0003944153880611329	-0.001131285341819538
0.0006134498405933281	0.004424111020752202	-0.003268031193625101	-0.002002352208654474
0.003809501131243355	0.005205222326996246	-0.004912118663595295	-0.006715471138641103
0.006355347246563115	0.005157573182898167	-0.003222226995403202	-0.0001910292753445645
0.006222803495207961	0.004827344000305909	0.006027442306448328	-0.0004717278664312376
0.003411397794418786	0.004176776755988367	0.003219865240403392	0.001533333411808992
0.006083199424696004	0.006648353208492898	0.0001817940844197034	0.001301326358320108
0.001392979263109231	0.01116831693233728	0.002499076234618367	-0.0001540126982558189
-0.002650489169735366	0.005304964536751998	-0.00104539456506735	0.0002616177507289657
0.002601057018748384	0.003694220902879656	0.00216146519564761	-0.002847160742552327
-0.0005395255318833324	-0.001384149316032556	0.0007814228216151536	-0.001083215324329785
-0.001380132494956012	-0.008776883445016271	-0.003696579062525421	1.004734430230083e-05
0.002729418127398275	-0.007839109569572875	-0.004185900177791106	-0.0002352137876068578
0.004527216551157183	-0.003597709399101026	-0.001488381503849386	-0.003829158611804255
0.004543241530100472	-0.001354401011422012	-0.004731820061593368	-0.003333404850088579
0.006912501414228382	0.000809263900007752	-0.003206399201932897	-0.002494140324090932
0.00206245687911575	0.001168120471387288	-0.001977084895143962	-0.001898586935049528
-0.0005064985490733652	-0.002444205435804798	-0.00724838295868577	-0.000878390014245707
-0.001559201420213653	-0.005571487347124138	-0.00525390572538561	-0.003781143663369162
-0.002060422058716409	-0.004779178495245831	0.0002549102540440846	8.491476076539304e-05
-0.003944033913270709	-0.004025813337293902	-0.0004055098871205186	0.002090860819403993
-0.008459262450552318	-0.004195762570329622	0.001337009862394191	0.000235677400810857
-0.006053329848103545	-0.00241009639819279	-0.001657068678635564	0.003917606287951386
-0.00586265013116098	0.001424321700232234	-0.0004898207334334049	0.004229164091153226
-0.005371025790028336	0.0002674283520479359	0.005079478968794751	0.0001863973028644663
-0.00416873439508172	-0.006889150968862275	0.003619840141740372	-0.001671421636352756
-0.001896299415593945	-0.007419770149665476	0.00277852658238956	0.002991259917258188
-0.00349625837448608	-0.004609282623059041	-0.0005553158050995873	0.0001948444049397312
0.002254267861769477	-0.003399084253388695	-0.001227702510445223	-0.0004476084875952077
-0.000664835419467395	-0.003805815860216653	-0.005590454507033724	0.001753188408703581
0.0008944131247747689	-0.004061879320474876	-0.005835120195033927	0.0001903543444744169
0.002247568636629574	-0.005226705085309393	-0.005051067315001385	0.0006983927741747595
0.0009586013184911186	0.009403795723975341	-0.007483548071850218	0.001324596691651724
0.00163873250642679	0.02068443576130296	-0.004187046407920733	0.002396676557589588
0.00846271694964946	0.02152309582767961	-0.003887688549525309	0.002520822250373631
0.004294006905950232	0.01111823321883432	-0.002184085207113465	0.00066813012223718
0.003321352135525095	-0.0009388846947244356	0.001352040506359903	0.00350125174457369
0.006063404645107555	0.004939536326932438	0.001487387775370761	0.0017549391521566
0.004439452270978745	0.004941277138405809	0.004574551384605573	0.001792692589066389
0.002546867352698036	-0.000144279719286394	0.005040674136006187	0.0024096952670342
0.004296725448280077	0.0002683054356543492	0.00336049340436103	-0.0007012963760265723
0.0006309406989551546	-0.00308545340261276	0.005889998226602955	0.002856813339034078
0.0006705009649401032	-0.006101526674764279	0.004230553804707444	0.001413977796137343
0.003842247243543061	-0.006663989522058894	0.003963510029703706	0.00596024355270885
-0.003696574481332447	-0.002915731076491955	0.001182763917825986	0.002968289077987786
0.0004153598046796685	-0.005260319692557584	0.003399494404039469	0.002572606001824105
0.002257229460519514	-0.00237565481179199	0.002174845917177502	0.004428743807280367
-0.000791113631369102	0.000651933100284179	-0.0001226506141563058	0.003110595982626564
0.000829546786225314	0.002261822319644021	-0.001549238787736215	0.001590257831349839
-0.001716854502855876	-0.0006151532163311742	0.0003422927494771105	0.00230818108234558
0.001025811951377375	-0.002758416942088246	-0.006882747253069204	0.0004518624664540672
0.003394336534620951	-0.004356405805755728	-0.002695847915738599	-8.958200378371645e-05
0.0003581011297592984	-0.006529020586650725	-0.0006022894131398407	0.0001823776177555957
0.004844676203613777	-0.007466398784140471	-0.0009006082634977718	-0.0008413439686760145
0.004494513980166839	-0.00819114403267945	0.0009036666427848885	-0.001636125428596127
0.003090887526241591	-0.008290807464612606	0.004472541143019706	-0.0005860058114829019
0.003276023623050788	-0.01099029340368083	0.004230992850242045	-0.002019272091446939
0.004437018117434486	-0.01271971016812665	0.005032754763933091	0.0004155151429761255
0.008600909949273922	-0.009726895601801035	0.004171771209281984	0.003110064554572088
0.006408151425677585	-0.003091693049969387	0.003908890477725693	0.001430606455896488
0.003849930689987441	0.00125686805826302	0.0005267848906206696	-0.001500644851740165
0.001250339132150138	0.009310443946304762	0.0009562622497851533	-0.003100199387448582
-0.00250140141496612	0.01236087007779152	0.0008745954455310793	0.001887761226668165
-0.007066646693486032	0.01457762533324902	-0.0001290379901044811	-0.004407943486213657
-0.01118984586216377	-0.003130441266282504	-0.002249592674668351	-0.002091548568990171
-0.01115271411014006	-0.0006798596003367921	-0.002827982464306082	-0.001317258541524544
-0.01252378657508963	0.001302667727659622	0.001578313536330734	0.002131958962969547
-0.01138080800922566	0.003911971614710436	0.004208472987645339	-0.0004588083637195555
-0.007700210177452386	0.003385675457806381	-0.0005246045803062287	0.001023181485556599
-0.00983909121082868	0.004422724268300305	0.0003072251840119934	0.0002012883297151958
-0.009769711327554957	-0.0004616535936864036	0.001869274123636731	-0.003189038451867866
-0.007000517385039103	0.0006887533861243823	0.001769260887758972	0.001310292935669114
-0.001078312469528025	-0.0007465422085981318	0.0008139866727792687	1.697058510935224e-05
-0.003353474777046124	0.002948184530682608	-0.001246330647656404	-0.0004894120508678944
-0.0005397308615139226	0.004979245797542589	0.002592610377909621	-0.003902004898698021
-0.0007563697507953652	0.004648222986875487	-4.103460873110869e-06	-0.003673649227101013
0.00144076742699503	0.005856184463937035	0.0005563804078053205	-0.002303582957437014
0.003253351293346041	0.004151529392294817	-0.003440063747125007	-0.004416586477694956
0.0001103143556526687	0.002173943654174331	-0.006528915421030972	-0.0001263940365756893
0.005881031773202784	0.005237224728321782	-0.0008382414957330757	-0.000565998728541733
0.002409090609272102	0.00214643714922264	-0.004539480567598443	-0.0029001958339804
0.004360286831298553	-0.001604742311243381	-0.003178461955903182	-0.0005937446959969974
-8.11480788825912e-05	0.001794107227870536	-0.005076312395546238	-0.002203876560225254
6.554954655007296e-05	0.002775532625680674	-0.001894622895264324	0.000900169622698562
-0.001289640620160098	0.004639741590958446	-0.001438615118435261	-0.001190865996943239
0.001248123372029293	0.005580609820630392	0.0003452160141485404	-0.001432685642237509
0.001563764533202278	0.009299491695211477	-0.002522584176666374	0.0002156431335353029
-0.0005508019945131698	0.004218253141824554	-0.001206903622900238	-0.0007172835713294516
-0.0005773048313295849	0.003956342807458332	0.0002420024296634574	-0.002134867706511699
0.003738050993947591	0.009491548936220394	0.00373442604516527	-0.0007787731251472714
0.005768781507314501	0.01483505631258081	0.01139824823440301	0.0002684547048546376
0.003413581260387724	0.005233033410772839	0.0106555912521393	-0.002164492969812659
0.003147026840176932	-0.005400106730589379	0.0004697882076237587	-0.001861639500416855
0.004271907891142214	-0.007370097982919351	-0.001309153531966007	-0.0004098907209587856
0.006280745847391993	-0.01147596002187516	-0.001046364682474638	-0.0024139207929847
0.004167231371360812	-0.01488218443931689	0.001197879435486029	-0.002206523440518016
0.004008599946161678	-0.01319079426500197	-0.003496899413299257	0.001362288222241457
0.006402580036029424	-0.009141757834429333	-0.006639752164133143	-0.005670615017541476
0.003168448283367128	-0.007945466456798285	-0.004213127085225937	-0.003915302929555265
0.0008810026100536865	-0.00714771097097033	-0.002335420688270717	0.0006909621536640874
0.0001308790148303283	-0.003377185540322364	-0.005183809063671335	-0.001786764417678278
-0.003141366217261118	0.0008157373316559333	-0.005381512985406886	0.0009785174378533496
-0.006675502961276439	0.01244298580528854	-0.0005952462721180888	0.0001284764579812469
-0.007388916708604119	0.009847749559033586	0.005480136781876943	0.007217136705065894
-0.009266734857558275	0.003592577477395918	0.006700278356974125	0.004258848787756864
-0.008103822509798422	-0.001467680483499828	0.00606515877857784	0.001280062464438029
-0.01120149209785734	-0.0006554627977416531	0.001172455439351319	0.00149695368770836
-0.003597716445608813	0.00221133974046437	0.001463580474879304	0.0007740088463597577
0.004593969957081084	-0.002157575631998528	-0.001406599341299419	0.003415540931840139
0.004785999944474452	-0.006026518026911626	0.002657012131087458	0.001269185414113833
0.003417909231009895	-0.007306737979428504	0.003501067861710988	0.003170828779032183
0.002016522844331301	-0.0002904152897283692	0.0008127167563764893	0.0005767537696322879
-0.0009168768230442821	-0.004760511647169683	0.0009858351598704309	-0.001470693400833417
0.004875955678877486	-0.005008024333113739	0.003877543614459467	0.0001549388958495125
0.004589791873160373	-0.006745621131216267	0.005357454087490756	-0.004641599281955784
0.001490054196538926	-0.0001038840369632027	0.003102262098340361	-0.003954939797118694
0.0003965267238547442	0.002573633144218507	-0.003591388070008912	0.0001111118993042304
-0.00377949817891464	0.007087489597220497	-0.006671858503029812	-0.0007531797784489314
0.002727027715116609	0.002486297702455686	-0.007776461470338063	0.002323281315316234
0.000533712531762311	0.004337862929220103	-0.006338815687635046	0.002115789962925368
-0.002423794269827447	0.003286890471025039	-0.00561241907451303	-0.001485260175133194
-0.001900720848850887	0.002655607406770582	0.0006967965385383079	0.004491578543012256
0.001988191025016719	0.002195960365644531	-0.003598323590353229	0.003006832183680761
-0.003115259863514238	0.005885415600891548	0.004317108477702962	0.004329803016803513
0.0007570975315058731	0.003788174272969195	0.001897892129767861	0.0008465108093149162
0.004217094029140269	0.003004578819522385	-0.002320042114479955	0.002389573602391439
0.002383784978693373	0.004154941692105267	-0.003476657171776099	0.0001849845099685654
-0.001638346478830508	0.001109175833812681	0.000445412185848255	-0.002177691505831216
0.004066786008301026	0.0006109620459860243	-0.0004075157889273167	-0.000201072588768512
0.003720536068830906	5.646686620724152e-05	-0.001621633889969968	0.00155603814110405
0.001927065470900811	-0.002201717450865808	-0.001587866590516774	-0.00175700349140466
0.0007774318672073321	-0.003295616444628227	-0.005751151020504499	0.005468598526154896
0.0008754175471250789	-0.005791646137762551	-0.00509185323219802	-0.0007476418807607049
0.001843384632680241	-0.007183988659765216	-0.003259689731642468	-0.001828493374564389
0.0001788848836750124	-0.008465589914211589	-0.002623842724089249	-0.00260098141561196
0.005408557350748446	-0.009854354643730889	-0.002650423044804481	-0.001642841303877509
0.005555959324591069	-0.00538046997422687	-0.00179508925168943	-0.00152448859940885
0.00383635687824444	-0.003450779525231672	2.380312455778904e-05	-0.0001742118960537983
0.0004157875782967737	0.002451390101567065	0.0003320178272114478	0.001205512319639877
-9.062991165496115e-05	0.005145729813296925	0.003266100722872364	-0.000161404824463625
-0.0004909293876792456	0.002655748178651761	0.001435854872067012	0.002196037652929546
-0.001514591111250499	-0.004105513064820866	0.004806676794433432	0.003818745725844621
-0.002120008931907059	-0.008557070091806836	0.006390525351363661	0.001184861769081654
-0.005457942415465867	-0.009963088408046172	0.004857215057010464	0.0008712143274599779
-0.002288385317670304	-0.01063687833771277	0.003563254637013448	0.0007868990869131648
-0.004801554105093383	-0.005568372850888889	0.002901453323438833	0.0004173102279148866
-0.004136516326852131	-0.005849242956884321	0.002487619454791497	-0.001694542558111451
-0.006507440556304755	-0.003702800516046138	0.0001721670095841657	-0.0002192283005796246
-0.002371407380242513	-0.0003076654325638769	0.001083259714050562	-0.002666130891569596
-0.002843278678913205	-0.0003636610513588541	0.001309179590819693	0.002363900658298152
0.001000239619739069	0.002837064237565064	-0.0008914813893261044	-0.0008990391520003234
-0.005207766016149256	-0.00126037326351673	-0.001734477702797266	-0.00148547333258649
-0.005431448899839575	0.0006861853561933753	0.0007774962019665964	0.003092377581650641
-0.004643336535036235	0.003851989249108146	-0.003886476017199807	0.003779345944975767
-0.003025136500581072	0.01028480922535195	-0.00138545540085134	0.002669759190303009
-0.002895297508596305	0.008393948317324863	0.002991363552115071	0.003394863278709375
-0.004579638997020601	0.004745026486270789	-0.002735768109690822	0.0008189115365518833
-0.003979214621809164	0.006175576622471416	-0.003988268060773625	0.003364420572060103
-0.0001130236113841789	7.005657367824419e-05	-0.001342715162172987	0.0003729007107864083
0.002507078846205303	0.001158616829069702	0.007476766674373181	0.004884751216630428
0.002408439556473662	0.007814442314171435	0.001780306062156903	0.002275429725825116
0.002477815188196132	0.006292801724860333	0.002068643686814681	0.001039148349723948
0.003388763282024001	-8.999071074268015e-05	0.00662901729303448	0.001673567897459201
0.004507656240750802	0.002423906825952356	0.00130560601299572	-0.001389258860427106
-0.00254515295051226	0.005294660758211725	-0.00110506933224614	-0.004614318488621874
-0.000381626958045531	0.003527760114368745	-0.00151518098250527	-0.001654087277819027
-9.854984733938906e-05	0.004065295624219699	0.002615202144489502	-0.004688765322659751
-7.883368882608707e-05	0.004081348108037407	-0.0004221097776954586	-0.00352627150207633
-0.0006346633892446779	0.002438628770982005	-0.00540630948832068	-0.006205959941479435
0.002202835247233499	-0.001552698213126537	-0.005436674010712125	-0.004442210082634862
0.001660106672165768	-0.000885318220789097	-0.002207988271515629	-0.002729283950023624
0.003014659054065687	-0.00299382201540964	-0.005795082713175827	-0.001968710106322394
-0.0009701952148650609	-0.00508247865850606	-0.001437166799707393	-0.001650508401378291
0.001659058429654682	-0.004736971250463859	0.002347709567720532	-0.0003136422809409985
0.004652991225028072	-0.004795812856419097	0.006633705169142289	-0.000950047349180729
0.002893884263674581	0.00309557687309649	0.003822817600684707	-0.002136281716875428
0.006252727185073622	0.004522928732707848	0.001205364797184003	-6.277622594327467e-05
0.002647548311179696	-0.0005918171417403239	0.003142228688256778	0.005301735723007179
0.006127532696583571	-0.001510043582751314	0.003038199049824207	0.003964482224173452
0.006465993554494055	0.001701583420249311	-0.0007292443069140496	-0.002147220163230138
0.004118732446422092	0.006487285954478043	-0.002360062597737514	0.0005079081532275695
0.006227104053856062	0.005919592286861928	-0.002484551501455179	-0.0008620818805440409
0.0060943020698858	-0.002255994659821181	-0.0003092739012002641	-0.001075864159169872
0.004215642234402717	-0.00407876414915424	-0.002344646537515588	-0.003609174503880746
0.002223412640034905	-0.005053919923975785	-0.005380558128039883	0.003371024747209841
0.001965716903224656	-0.001626594888445239	-0.003588745773439624	-0.0004665610047685922
-0.002126767139301477	-0.003753498926564553	-0.002046204163993956	-0.002920078223692355
-0.003140534959788318	-0.002205886472445063	-0.003492734225431278	-0.004432346939300742
-0.004155212530639512	-0.007486624680086641	0.00131104781723415	-0.003639693463449298
-0.004165536822397913	-0.007877664546863354	0.009514440839810869	-0.00167168205204413
-0.003781951713742234	-0.004131017875129498	0.00737044659974459	0.0001192724039500483
-0.004292851822349322	-0.0004487285065939432	0.003935211343212979	-0.002739754374893412
-0.002268651597453511	0.01710701249913008	0.002007013434171091	-0.002768028703285091
0.001006547104681759	0.02478874516366882	0.005684777204099991	0.0007785327411935535
0.004140563154439864	0.007674991763684839	0.00345120658432502	-0.002097158812710859
0.002942788798488134	0.005737475232577396	0.003329179297124213	0.002515048606169415
-0.001595328352194509	0.00747613805622873	0.002643701370846852	0.002908593999553949
0.00484406570839508	0.001756987651063617	0.003657638406946241	0.001399416992746574
-0.001162687759989291	-0.006298002960731791	0.002727234231971667	0.004070084138315081
-0.002043579642861257	-0.0110547767630334	-0.0001721348345034978	0.0006099472222599593
0.0001866710085204276	-0.0120942395954277	-0.002030335342853507	-0.00192283458983841
-0.002035717006030284	-0.01089174300752503	-0.004056294808632362	-0.001054172026731595
-0.003006061800119384	-0.008688015175314505	-0.001501884930498904	-0.004237998119926706
-0.000120847156343323	-0.006399912555020785	-0.002263729196940547	-0.001621044508735521
-0.004858102319255232	-0.002816434984517034	-0.004475550918030059	0.0004586148068230506
-0.005709815348067538	0.001683729472631185	-0.006788888319451402	0.001719644687823583
-0.006250315269944053	0.01260530826649066	-0.003667478188487563	0.0007537249470994311
-0.001770250511517934	0.01770099444808713	0.001655556982918816	0.003464944824984829
-0.002151477276526738	0.009234765291791217	0.003874399449666746	0.001408985794781665
-0.008015172786189323	0.001393309326064132	0.001911064516044199	0.0004625681197274789
-0.005466535946906193	0.003373663104998991	0.005987612028904729	-0.001196883718128597
-0.003020792484361247	0.0002448119525546948	0.003104532605775323	-0.001604803993047485
0.001328681290956707	0.001511987207103474	0.0004994170028035358	-0.001289724589802174
-7.260351690044601e-05	-0.004019694691537398	-0.001901009549061109	-0.002645816415818846
0.002349391035774495	-0.007452795086383874	-0.002567452527632832	-0.0003409434359753808
-0.0007440641604710642	-0.00910023311553108	-0.0002866851263760728	-0.00193045926663256
0.0009564033009037411	-0.006184393859272113	-0.003126167005684227	-0.004598622127619923
0.000232355092212448	-0.008805066295915627	-0.003525998397641022	-0.001555544298849906
0.003999068347903675	-0.001984932709480435	-0.001073009606517739	-0.0012596623345024
0.007029581186050083	-0.002813789835382852	-0.004838484546356855	-0.00254960988785228
0.004545308572325308	0.004843927894776552	-0.00127712174331561	-0.0001428499920183384
0.002758959973056773	0.00900849809186851	-0.0002801169565060708	0.001018145318658206
-0.001627451368617155	0.0121973125476042	0.0005366664465579315	0.001113044555739891
-0.001771154256561013	0.01687723601804156	-0.001902635968265115	0.001865134612395808
-0.0008691532837663783	0.007679308864929926	0.0001616607253785888	0.0009181454310161739
-0.006690735954371639	-0.00380963609106004	-0.001731837017239366	0.003648142575670498
-0.00468581585507146	-0.009910206485876321	0.003970467592162272	0.001840989140274146
-0.003184716344025005	-0.01066403475743922	0.008762600645448796	0.00648147482519333
-0.004845772335526005	-0.00899963396585538	0.0115938802628411	0.007143897550957554
-0.008522103513842069	-0.008480770293407984	0.007312673913180777	0.00799254785777543
-0.004783182703652158	-0.009337277944924092	0.001544076691376551	0.005531185196337163
-0.004605956699241752	-0.008749947220136774	-0.003298174123102189	0.002461976523759385
-0.00500370954399067	-0.009372987985272788	-0.0008533487437416508	0.002029401723478192
-0.003471500828802083	-0.006040738083141391	-0.001373734985457705	0.0009481101337647576
-0.001044553859904021	-0.005953529566880444	-0.006054484538711259	-0.001147821156299126
0.0002985738132924458	-0.006952725056846409	-0.006172552255315312	0.0001252490935097114
-0.002687839263714074	-0.007316420374614049	-0.007394816673466044	-0.003829488599868118
-0.00269647524255755	-0.006573773469815236	-0.01275558261970105	-0.001023443761495256
-0.004882889368643597	-0.005141765016544763	-0.002264382684254947	0.001817624589773834
-0.001682505684035295	-0.00717507900802387	-0.006249581247759983	-0.0002479614762990587
-0.0004398420914048359	-0.005412158652994275	-0.008432523814043063	0.001236139850704823
-0.001589521705363618	0.004234047827529763	-0.001345839598169542	0.001158320779814198
-0.0008823477625268618	0.01093140884163825	-0.001963615721159473	0.0008066412988005777
0.005146861771501655	0.01103156461272065	0.002653518175952097	0.0003346358676383881
0.002414154991105496	0.00905882070491631	-0.00215445408127288	0.001755211761720383
0.009827150304522974	0.004357184861621495	0.002958327713466419	-0.003237163618403069
0.008807006078560293	0.007144737984084538	0.0001235395963360459	-0.003181661961347609
0.008128290145936525	0.00650326710115931	0.001899022898782813	-0.003588500273546439
0.01002341689036646	0.01010096480563812	0.004673121645468775	0.002208725830831565
0.006086357279860047	0.007821631342342308	0.002106573730350157	-0.001032481901987485
0.01301210069542248	0.00385629842552944	-0.0006131794520979263	-0.001709031720276745
0.008005662294875773	0.00542666453591483	-0.002972503129966059	-0.005893029040391051
0.009698298319380986	0.002456126706070265	-0.002732640138616054	-2.440870211494457e-05
0.006746183328313338	0.0004612163659873721	-0.005551390918293021	0.0003243683951722521
0.007293095962981574	0.01070911392998799	-0.004078698736255066	-0.004005568651749505
0.009845381482134291	0.01817276502526776	-3.539952024030695e-05	-0.003230310323928403
0.004676214940130471	0.005401209949076604	-0.0004661654221044367	0.00109150332588372
0.004168048761745659	-0.0008467395209502838	-0.002018714512807341	0.00238245738098473
0.003648462289799393	0.003656808048856745	0.002065969595857811	0.001158832888656757
-0.004009199083333578	-0.002428285579218882	-0.0003991343777254097	0.007735741737597526
-0.001404282385811047	-0.003694932244627493	-8.649921972469189e-05	0.005649894903944403
-0.007125171604071264	-0.006909934948534377	0.0001600609256853842	0.004528002052270814
-0.007807260278270316	0.001433586644942532	0.004764218761206404	0.004584829420687306
-0.008716129796793884	0.0002023504951167575	0.003218396025814377	0.003599317981117785
-0.004493225970775716	0.00106423829942402	0.001448911774828624	0.001477761480562637
-0.009107116690146008	0.002558341058487284	0.00319071079625912	0.002418202750691171
-0.008618389046387334	0.002531800605380243	0.001338158919850786	0.001900916966130115
-0.007670866805253839	-0.0001910074184494412	0.001648933162846449	0.002947069585225357
-0.004378180246031879	0.001541827562455179	-0.002317056231241692	0.001121331524056688
-0.002544270912831903	0.001665681457093546	-0.0006239788415097523	-0.0005616705551343998
-0.0008234654263743144	0.002024861751736086	-0.006641739829736561	-0.002488377153633074
0.002574311699711556	0.00184994528589037	-0.009305944882178546	-0.004846546505842332
0.003581870500819432	0.001208090211164341	-0.003742920831015074	-0.003016210792956983
0.006877896200375167	-0.004859883536636549	-0.0061909239742044	-0.003089113963951121
0.008417132783554737	0.00312798050643153	-0.001566663506227857	0.001583327752622188
0.006328290342589225	0.004582421599926066	0.003174296343146535	0.002674291521160091
0.00579896865416881	-0.002213723589645742	0.007055234427050728	0.002627390494807018
-0.001106742807250376	0.0001640046142559541	0.003882853082476	-2.030953287634424e-05
0.0058822251688238	0.0003741967346321006	0.006611429635904953	0.0009662881620094723
0.005401492170100318	-0.005151253889514193	0.006717662022167343	-0.001429260905976206
0.003333067269802094	-0.003683783425372604	0.005899154723691084	0.001754370714720757
0.00120539214920716	-0.006943505983745691	-0.0001426351397949031	0.0009066056159142131
-0.0006276143082984464	-0.005405812064039453	0.002918855809546159	-0.0003857438229444583
0.0004182069271204183	-0.002300579228637778	0.0009200392553275505	-0.001591083197220645
-0.00710436880972352	-0.005910888319338893	-0.002921353590790157	-0.00488796911450894
-0.003444835790878979	-0.008879174355010608	0.001549407706617604	-0.004642743591689106
-0.008512514937378346	-0.01001602692421857	0.002554298164083219	-0.006055865087260063
-0.007323802092661214	-0.01432412134408904	0.002947221442942934	-0.003373214142412758
-0.01001932725627079	-0.01285541344197848	0.001489831855240305	-0.001618140497547138
-0.008415884695468261	-0.009171206326826602	0.001262825224523294	-0.0007838058246124008
-0.002641302329242271	-0.01210862406555773	-0.001158734615437273	0.001262046740645901
-0.003559648751159578	-0.01119996261283813	-0.001382283256331865	-0.001198142928514479
-0.003457225824000707	-0.01149542779805416	-0.003998553556645907	-0.001262207594148308
-0.0032821400833194	-0.009673659229872202	0.001792029276973718	-0.003796855097363613
-0.003424891064928904	-0.007716939962517969	-1.691164895769414e-07	0.000704689886540969
-0.006446649664659961	-0.004687691257097491	0.007810582019827295	-0.0003709156215410758
-0.002330506509456104	-0.003223926985144153	0.007799605352636337	-0.001931604132240224
-0.0006891425325501328	0.001686650066640884	0.004783960989284661	-0.0008271821154457942
-0.0006772892048812712	0.01453723875433796	-0.0007533153126360944	-0.00411709495428362
-0.001535702558339111	0.02186748023194921	-0.003105341562224142	0.0003155765618383667
-0.0003943199899380124	0.02419134791647902	-0.003208614271278699	-0.002788266773817234
0.002235312025786512	0.02048853034255431	-0.00586132313638404	-0.008925798068717605
0.002185571686832801	0.01311847482244622	-0.0001316445351737447	-0.006578859858967879
0.006931164635077953	0.002835419044427915	-0.001809185436776335	-0.005425285669473325
0.008998622443720076	0.003235646006576129	-0.0037425412983426	-0.007197604311815977
0.007329751245212537	0.003767682168023976	-0.003289897441266318	-0.002785933778103851
0.008325936685474563	0.0001848473640208755	-0.006258832774610749	-0.002941573539988689
0.01156492464057268	-4.10073502062396e-05	-0.003007262594649763	-0.002282260012208859
0.01098689697294435	-0.001512546615243179	0.002330888039708199	-0.001547830622293412
0.009350212738704433	-3.299334562284367e-06	0.004679278741412876	-0.00235699095260344
0.005359923652845446	0.0007548294157939706	0.004829764341174689	0.003349664191611355
0.00123638480875687	-0.001845307521383053	0.003104663096456842	0.002716990286928407
-0.003664592289958757	-0.002800039872995801	0.003394640825543502	0.001055260841915616
-0.004176498800045938	-0.002956255415066385	0.001856068974771258	0.003259836911177554
-0.009828024440325999	-0.007048043065189083	0.006090706275506987	0.0003309441686386209
-0.008635528138515586	-0.001337827910620023	0.005027671748024589	-0.002915719848827494
-0.007214710650402079	-0.002912752605155721	0.009741591398452452	-0.0008079177601898943
-0.006333092304837	-7.321688662813328e-05	-0.003535623108864806	0.0004707057824854386
-0.007594725638280068	-0.0003700920423387069	-0.004451195116962873	0.0001276241503289265
-0.004617486616852448	-0.0001275882077072915	-0.0006273516446959525	4.185130740221705e-05
-0.004972744305421523	0.0005575388290148883	-0.0007392413549099964	0.003780504136893277
-0.001592780271260365	-0.002935680492826692	0.001806625132681262	0.004828109350520866
0.0005314789587087506	-0.002832997580015457	0.005864849443914463	0.005621729137423344
0.005209254644374209	0.001861624381743402	0.003298509800036933	0.003371879818649582
0.008376940133229489	0.003893794092109233	0.0008416654069982289	0.003558294576674262
0.004117746311422899	-0.0002483742675880018	0.002728108470934214	0.002664646696822614
0.0002286697009035176	-0.003273885310063364	0.005827053972165775	-0.0003998918318315396
-0.003071139825408919	-0.01317074442764011	0.003856128039611977	-0.0001572274091641953
-0.001290413614971756	-0.0169193248527844	0.002662058543453194	-0.0022318681184842
-0.004395690676684947	-0.0134179026661093	-0.001315565218911294	-0.002060842819601862
-0.002595801169445377	-0.01119278476077643	-0.001594596488866686	0.0019232305764007
-0.003424523264631634	-0.009394430495403882	-0.008977036394178493	-0.0008449877441087798
-0.003065633244458915	-0.005220307768555622	-0.009896514910258039	0.001637247422460256
-0.005120390842251164	-0.004802675430895916	-0.004104382283979254	0.004527577542811128
-0.003030838925438791	0.006736043670228615	-0.00647668726822316	0.00455912988960834
0.001143278318241002	0.03120128659875792	-0.005074289728636995	0.007356442067566429
0.00541754233159724	0.03295227881368459	-0.005946152190486558	0.006119290177808823
0.005168271033336198	0.02701717469960766	-0.004621482432959089	0.00604535060359038
0.005068991151174468	0.02167163284544353	-0.001247702728707499	0.005199494861462607
0.004141441597881706	0.02144855860750019	0.006156245620544744	0.004380050386171335
0.0002470937416403555	0.02006450875170651	0.004140376705473529	0.004606289065341901
0.003636444690043803	0.01353683111267497	0.004349619893338703	0.00168995338912368
0.005896027384021709	0.0064718589353927	0.003656529437545276	-0.001207982215332965
0.004703047572900332	0.003522488487573224	0.007613118915254203	-0.001029285808543906
0.004605925610959494	-0.001795783133025707	0.002021417225508577	0.001868793040426102
0.006398541711559187	-0.003781430669287333	0.001555425476227609	0.001766624233509443
0.004113426484943972	-0.002516350574063397	-0.002031320852743283	-0.00128460632074816
0.004088995938474643	-0.006214402536760264	-0.0005900162463928488	-0.00116042748857818
0.0002990077359267626	-0.009799755148408727	-0.00633925302736963	0.006063947095593583
-0.0009203040050270183	-0.006177964577645956	-0.0007452084164932401	0.003247560969617521
-0.001197957480969838	-0.002590845968713686	-0.000938873596138978	-0.001851282612976401
-0.005680937005331513	-0.005590211721598491	-0.002755759697927854	0.0004544544026529544
-0.004364314718664884	-0.003220329400254096	-0.001901118137690597	0.002850793005662956
-0.0001488098790914775	-0.00257159329719766	0.001162866825963117	0.0002632851693461873
-0.0002723701577633407	-0.001249704305109171	0.001605361665978565	0.0009711282419970333
-0.0008455238981437336	0.004855643081755429	0.004796673179783572	-0.003913701803548657
0.00077622597038007	0.00509891978119759	0.001769878565611226	-0.0003429319961017095
0.002010748378396662	0.002793818933571688	0.0007464424623712061	0.001447964909189949
-0.001054498489510411	0.003404675599453853	0.001331789304475181	0.001363083045987079
-0.002324976976867868	-0.0005447527545252557	-0.0004140417522789157	-0.001078719004673598
-0.001641634763159222	-0.004609071023604991	-0.003049680623251296	-0.002711332071865927
0.002731111851089623	-0.005130785764178772	-0.004318405293800697	-0.001994622412543486
-0.0003999023731699414	-0.008276970770252258	-0.001988072866428634	-0.002387740402574745
-0.006555163251186893	-0.01074691463379441	-0.003955899144869601	-0.003799935801745996
-0.002050814663249974	-0.01187092240215087	-0.007288352007641471	-0.003043809659693229
-0.001449275675036635	-0.009970705660893949	-0.007053442201306947	-0.004156014457830167
-0.002677140330726539	-0.01352050856802153	-0.01004187485464649	-0.003615823325355515
0.002699521340678003	-0.01880635909873735	-0.007732982631372421	-0.003288620580544218
0.001294384982660079	-0.01130520694601349	-0.00631804472854442	-0.001786700147378141
0.003975169457476312	-0.005340243651523511	-0.007108818744479621	-0.003967565298291424
0.005943511080340466	-0.003954477810645078	-0.002181573604286752	-0.003077577853205516
-0.001321712631817868	-0.002829667702415516	-0.00100988614932602	0.0006737508502847334
-0.00692481520045961	-0.001124189021198777	0.00472074879388811	0.0003569717650916992
-0.001424229140873856	0.002639189306103987	0.006062708128201368	-0.001929314911497251
-0.00394466809695316	0.009795599715797843	0.005697616305496063	-0.00267413450878148
-0.00376190134103428	0.007335239162474918	0.007941506168975128	0.001199541257068424
-0.004626072891620842	0.0001795429314546342	0.004555072592392595	0.0001358117963127504
-0.006513025405140087	0.00241934983234141	0.004745449044406031	-0.0005959227803723114
-0.005027879381694685	-0.006309241580310134	-0.001184149113527695	-0.002192254224997694
-0.005892848133631845	-0.002295486365219528	-0.00208272281585849	-0.002632618089273524
-0.001786347379265979	-0.002981009626459921	7.441280338095339e-05	-0.002155380726658938
-0.0006835455136537686	-0.009934467246652375	0.001114744783917993	-0.0009677466770690071
-0.0006214193032723945	-0.009985344595300861	-0.001610132425560184	0.0003346895330112232
-0.0008119114034750692	-0.01182345094439336	-0.00407816851425032	-0.004147037841729097
0.001178534009482928	-0.006039748285855814	-0.002740781055857358	-0.003805530152104138
-0.001928314076197257	-0.00855978559547663	-0.00216587735118029	0.0008709565732335132
-0.003211490372343419	0.003486380432707579	-0.002699298616574716	-0.0001968170806549127
-0.001315557859807378	0.01557066118973703	-9.538999371546616e-05	0.001011010588071301
-0.003159771377225123	0.01305059810331044	0.0007232579021372829	-0.002517130973634935
0.0003389784474526754	0.006352709834703364	-0.0009722374807130561	0.001823412426539682
0.0007852477196956079	0.005350918104313596	-0.0002072958808614667	-0.0002245677077358574
0.002082668367570184	0.004967002236185282	-0.001255598330632643	0.003734902970775729
0.005684545591020295	0.002233842987703405	0.005910132322266189	0.001551445766194544
0.00450747446522195	-0.001450438439213292	0.002405943311745721	0.001639594935872309
0.003805431374768979	-0.006019001512041097	0.004790998079307003	0.001671950091016868
0.00151933945755833	-0.003540635871180261	0.003340396319241191	0.003558252578592061
0.007234038678771137	-0.0006249246266228358	-0.002647157289222408	-0.0033718748392102
0.006911479428759479	0.004333148599627827	-0.004819763576724517	0.0006378412292175504
0.006182539162575108	0.003632816342398863	-0.006993437688355593	0.000114260370181736
0.002332966400682284	0.009938196387803905	0.002606373871650998	-0.002942190697606433
0.002896607281565021	0.02474498030828096	0.002017227925533211	-0.002235727026027756
0.004033597933973111	0.02521744874097289	0.0001168082290327745	-0.0006262538391404749
0.004423052033601271	0.02052445966300245	-0.002963213770324507	-0.001758401119356331
0.00320489709235309	0.003104538161929753	0.00200047809613197	0.003708146956907757
0.0001510827585613848	-0.004923697112427592	0.004819035475342077	0.001675864390186801
0.0006718630890415837	0.0009639313442585054	-0.000592626972865196	-0.0006454763184445047
-0.001644242766840698	-0.001950926593936433	0.003746507136474328	0.0002183196912169861
-0.001916138426482653	-0.002316878168062773	0.003819763687899533	0.002752206981306991
-0.0003407613995000145	-0.005492561141416609	0.008028800856088352	0.001011422424101352
-0.00367460831849496	-0.006609563299169664	0.003690486878096649	-0.00187829341461236
-0.001033775016396215	-0.00107331271436698	0.003806855812565236	0.002127725337722594
0.001591735321473415	0.004927018268609594	1.460510625132061e-05	-0.0008299734411380227
0.002098651083013096	0.001025704835889493	0.003210510914366375	0.004249188084103095
0.001007548448013319	-0.0004445192501308492	0.001542432516884396	0.001962413440332025
0.002331869977836932	-0.004751631039367921	0.001139392427537814	0.0005015190482735106
0.005620929126317804	-0.006236752161105641	-0.002704205599428652	0.0008705898218925778
0.008961716244389335	-0.008730461057093087	-0.003274076320952143	0.004168656872004412
0.004710746134031823	-0.002161440328026135	-0.00336736981932445	0.004633440954745792
0.002942600541981859	0.0009469456991786686	0.001148952192301341	0.001462019207671707
0.006574934991063446	0.006386732255971598	-0.004314765874244625	0.001477103680999033
0.0005355045765577604	0.004262094383386611	0.00190742247669323	0.0001742821575172694
-0.0007470441730381422	-0.001719552503946204	0.002140056514901535	0.002295854916605597
-0.001059281819572811	-0.004857342135582437	0.001472925822734074	-0.001295742037204191
-0.003986120923230385	-0.008847495167612563	0.001711192022704952	-0.0005195139235905737
-0.007458414043912165	-0.01141002508159311	0.001911923769737528	-0.001074022395347034
-0.0123645495069523	-0.01072774534618312	0.003573146097051897	0.002225646934436019
-0.008697973789884237	-0.01169184276758395	0.00206383086606044	-0.002249158225243543
-0.01931177664501134	-0.01272192566642208	0.006034841411743755	-0.0006756946630130313
-0.01655545544001834	-0.01350015097505555	0.004699644269705826	-0.001121782609669227
-0.01138215572260763	-0.009658386581252034	0.001034160411848511	-0.0001838902984426351
-0.01029410185845842	-0.009007634691458481	0.001394428512294978	0.003162645763527035
-0.008429337862594493	-0.01189850938234495	-0.002364780025448834	-0.001394452723760163
-0.004808180304563883	-0.01198074363319155	-0.0107481077149205	2.609652373518484e-05
-0.003227846190894938	-0.007653748034240522	-0.00789510510202455	9.755036288918997e-05
-0.003000128257300718	-0.0009910514374697761	-0.006451532983096351	0.002074868784129992
0.00362118075274637	0.0008403131336539345	-0.008156643055065717	-0.001121349384433086
0.003520202764598977	0.003412594318500747	-0.007119426523550194	0.001878424706342592
0.0004753397866658092	0.01023544147759424	-0.004193271849371523	-0.0003029193020428683
0.00291812120045963	0.009858735711335005	-0.0007812511246733314	0.0003734239785221554
0.001449998767978876	0.01009948367443483	0.003392953183450144	-0.002177812524486803
0.002432794853038462	0.01663667882275159	0.008061189685416728	0.001452641802020189
0.005466764818908434	0.02057861168083276	0.00910182941499083	0.0008681398024698807
0.001742696157144245	0.009813811157428463	0.004887459482830718	0.0005707341882006718
0.008175087142877855	0.004019018807745591	0.005734061919066297	-0.0007559479800927515
0.002950098117280961	-0.002863248031938609	0.00902448763307424	-0.0005143830183655909
0.003526404971186555	-0.002525569284580499	0.0007175181200356744	-0.001351868504454096
0.001073983226418683	0.004549344853702924	0.0005344401944825471	-0.002990336725553046
0.00304316905108079	0.005282225882567363	0.003619613286203354	-0.004137042845741863
0.002281022101883366	0.001593240626383589	-0.0006993944627170624	-0.002740180484504879
0.0002676185938973886	0.004042011434075352	-0.0004146675067756358	-0.002779509538265038
0.003565314368371626	0.004147587451037764	-0.004023281603281483	-0.001343999233387706
0.002156305861747658	0.01993676610701633	-0.003964777493882778	-0.002788658336180624
0.008645155878237594	0.0298079905148392	-0.007055170399704607	-0.001854193459592458
0.008291717152590083	0.01958432914975474	-0.008185164162914579	-0.002294734996483768
0.00609276063259889	0.01331260389132758	-0.003412018466858009	-0.001497839480472882
0.00501013780069646	0.0151086370767994	0.000497220646920011	-0.002030188767705332
0.002368853311432013	0.007110765154877095	-0.003563050317974001	0.0009404704813607799
0.007150168287779203	0.008166502205972013	-0.001896196488993767	0.001118084249033529
0.002468769096782255	0.008326335668136226	0.003098197670430135	-0.001761578355518546
0.004448474401395237	-0.00209994751375049	0.002572822389557053	0.002746315039121302
0.003390046920381964	-0.004529550387997329	0.00170385984729362	-0.001724609549673383
0.003893987009952953	-0.004432115656078115	0.00411732552868703	-0.0005941169211156721
0.005695839280158886	-0.005757130803320057	0.00316745251465527	0.000797383385263963
-0.003439539929766635	-0.01481925341556277	0.0005012738906516065	-0.003448595851704587
-0.0034055803042789	-0.009990566290559114	-0.0008860295865004934	-0.0004838794270382717
0.001358802714006476	-0.008094035737692289	-0.001031410767698573	0.0006262190136354582
-0.001823599075806711	-0.006663049978669087	-0.003478238229430605	-0.004009397704038773
-0.002964989442333849	-0.00905860571957301	-0.00371436564646592	-0.0007036215287410182
-0.001467173025976737	-0.01922248981501685	-0.003931161095228981	-0.0009566021721774228
0.005574546865417205	-0.01121795438850108	-0.0007874510127327441	-0.0008555586123344548
0.003167992788614667	-0.01033680157877575	-0.001763769948894631	0.002094465212827263
0.004565892552491052	-0.009962370299971483	-0.003356030857938091	0.001021313983249428
0.0007470523118001023	-0.006255509692536975	0.004441176100260473	-0.0002327373743670785
0.002821784847683462	0.005494136555992214	0.002489794238708924	-0.0009235702494713123
0.0003813777266069216	0.007822355092209739	0.005460524819259784	0.003173696154817762
-0.005758114608095654	-0.003714053224616365	0.003294838042179618	0.0007515916255348854
-0.00573604185399517	-0.004158048498408339	0.005604146302261278	0.002175176235432428
-0.007996224050282306	-0.003156779042086269	0.001781214657523061	0.004401538369961178
-0.008557666654430628	-0.001329512692929205	0.004105842071500281	0.0002142378469048094
-0.01014329324174526	-0.001582002797836411	-0.0005281250904169447	0.002390284060030928
-0.00963451167979304	-0.001076381811278125	-0.002372251506941312	-0.0001331301189188177
-0.01095482439659878	-0.001979742607160163	-0.005381569080168087	-0.001212464030136274
-0.01048033321986201	-0.002974703854511003	-0.006369209291941173	-0.00245469555078237
-0.008727186164684517	-0.005807512605005401	-0.008233304362364401	-0.004337673853021018
-0.006339497715118346	-0.009622527165147183	-0.008980004587037852	-0.0009075038349526459
-0.003235578994693687	-0.01241830704181269	-0.004661618347181604	-0.001100230369106005
-0.000111286514972164	-0.007879705197260606	-0.003105014333713782	0.001819267253008821
-0.002785319318524532	-0.005967674772527591	-0.00368765848730812	0.001349925344772448
0.0009763442496070211	-0.00559382443281525	-0.0003330610868174441	0.006295543203092668
0.001108454817732965	-0.003344626129171591	-0.000383442350178014	0.004574460415581722
0.001704950572920877	-0.004006400821935451	0.003871877549341821	0.001514456226919005
-0.001151667465837934	-0.002820646263610129	0.005053068583048581	-0.0007744255996380652
-0.003623340989221701	-0.005223962360110045	0.004338656622552963	0.001303585710188143
-0.003709143975373534	0.0008549167071828993	0.005298959003286696	0.002221960230440731
-0.002044551086526557	0.002908982926308299	0.001134932907817361	0.002106717092108367
-0.0008460338704909279	-0.0005396032152634997	0.0006919951628979548	-0.0002896496948007195
0.00117931026532497	0.001508104633572114	-0.003712062120066345	0.00554180841173114
-0.001047209114936409	-0.006196313253791364	-0.003787757039882154	-0.001085859328191373
-0.001677912474957862	-0.000521898207240122	-0.006743881472415853	0.002128270055084105
0.006451079177907865	-0.001256184708377928	-0.006606026301207023	-0.003184871086311331
0.004439034070010814	0.003446791734297721	-0.007573664544112663	-0.0006833428758009452
0.006062276430494696	0.007318402830684997	0.003904777063948467	2.319734662723876e-05
0.003051646633035284	0.008914070052599152	0.005268234983759412	-0.001429881925419454
0.00425310469534992	0.01100980140142671	0.004161079702372216	0.003210945790515755
0.003730842832234191	0.004987080299549202	-0.0003338807063869714	-0.0005490262374935745
0.004332235019211035	0.006100690775128412	-0.0001886182049492517	-0.0007861106541106148
0.007162081381415266	0.008566801483478948	0.004747182600458894	0.008907308064984701
0.01137133753195108	0.006702276463837749	0.003699987626958723	0.004988660755787954
0.004973101749688818	0.005112098957809065	0.00792899858501757	0.004709816478685068
0.005948852788558587	0.005041977993683976	0.004442470233666442	0.001465086364141985
0.007438913899142976	0.009229718565523664	0.003819973065289777	0.0009638165067190924
0.005247866098632652	0.00921575322107018	0.00942274088534943	-0.002528274239075188
0.00162921888987809	0.001231579069072783	0.007594997785396843	-0.003274102882365106
0.0002516419201309536	0.00856286659391195	0.001749997747578425	-0.001533159230448917
0.001883471948262208	0.001934109939471797	-0.0006990447165261552	-0.007021576732972954
0.0005715927699209384	-0.0006505842041604278	-0.001349726336894268	-0.003346577899528735
-0.003960506002494753	5.76955055790166e-05	-0.0007664635836764027	-0.003294330351801579
-0.005788679520717745	0.000520569916737636	-0.008205569599633141	-0.0006204924928963305
-0.001876638633113937	0.0003989316487653543	-0.004652510113348906	0.0008334114323374831
8.775103474222667e-05	-5.817225039076192e-05	-0.0005441870174880084	-0.002171180705863863
0.001573667745743081	0.001963280228396863	0.001228137590954731	-0.004566318427633932
0.0008684268194497944	0.001556324516883993	0.0009150598134524581	-0.0004911515617315918
0.002755248323827179	0.005378986748536236	0.003728446960451589	0.002394798809325462
0.003696014820542326	0.004561986256226451	0.004432084192271792	-0.001859187416713785
0.002911552935664318	0.001224921748380851	0.002988997344357216	-0.001261285506002266
0.001917620126844216	0.0002937514011060837	0.001889796163690347	-0.002112743339611312
0.003063487308568986	0.004244992909975431	-0.00274647098854823	0.00103180487538631
0.002694667374484806	0.005058539586038474	-0.001018002050438503	0.002264752699993562
-0.001210027693481671	0.005606559478913966	0.003026405190388048	0.003266605064537533
0.0007503871266810888	0.001309740559640015	0.002554175014507557	-0.0007170221352064911
0.0006185624156665457	-0.006069368108953409	-0.0007887597788487767	-0.0001889737691412315
0.002072051608091473	-0.005319189787615059	-0.002092992311711408	-0.001877560723798898
0.0008173926304649594	-0.007461751734785092	-0.005462279009323346	-0.00076480459371512
-0.001633178598263359	-0.009620498149576185	-0.00378654804905524	-0.001866749351291135
-0.003502479621829937	-0.007659851621445439	-0.004715454121533709	-0.002831472428900628
-0.004191177270885538	-0.006718520908460321	-0.006305535854580578	9.58480812424533e-05
0.00259424686344077	0.01365585881221238	-0.005332881547660223	0.0006709906849594756
0.006484993319388086	0.01647561030025504	-0.006405280817029671	-0.002295531197896877
0.002688313027405547	0.001552040275566637	-0.002470900920813568	-0.001056488161243794
0.0006428516687402174	-0.005773860626853198	-0.001402338686991515	-0.001237493703012417
0.001721127283767647	-0.006729924690275331	0.005682686390899427	0.000980009440036963
0.002351714100398519	-0.002147208648877154	0.01002981259248984	0.003210901924460256
0.0002942924595899528	0.001319823141321564	0.006297436689573574	0.005263358238382698
-0.001295829900285302	-0.0005518335297480988	0.008305790491921783	-0.0004666993951387945
-0.004706382821731819	-0.004964482437966004	0.00182314074327623	-0.001955457747481181
-0.006139610698883187	0.0009859705902921889	0.0007279318957995958	-0.0008178605951284485
-0.007634557508559605	0.001965561205483266	0.000885980784160034	-0.003105333716773096
-0.01053992054759931	0.002246005828498887	-0.000300363011159968	0.0009172314547714306
-0.01125649728725873	-0.004990426019670464	-0.004687273695335896	0.003652966712385904
-0.01068292086182529	-0.01056616567245953	0.0006088706158776163	0.003904922857450479
-0.01376949860679919	-0.01583562632960277	0.0006169953833787275	0.002371242935421593
-0.01157426147628895	-0.0116474456097464	-0.002019444607004351	-0.002261940998265741
-0.008787632536632822	-0.009895003967990066	-0.005040082803685814	-0.00151565636971598
-0.009455150726007441	-0.009100111545596153	-0.002548815361267188	0.001244417515029118
-0.00780937973850257	-0.006660092893432341	-0.005808788053248612	0.001131727490621105
-0.004568654019908253	-0.00332363382644913	-0.004526913121061348	0.003373472130508025
-0.003041303347961452	-0.0008001574272667943	-0.005060338331510554	0.00245298998909566
0.004753675259282586	0.001868615611687762	-0.002034518974143431	0.0002928459492304352
0.001598381480072844	0.004093290661825033	-0.0003075384594398916	0.0008208970577592988
0.007094401659462578	0.001039709221387461	0.004444623400141959	0.002762797932611842
0.002189595617200205	-0.001483058712761333	0.00419665571534452	0.002206353779319506
0.001966471262270896	-0.002443394844278202	0.001898001476659905	-0.001597668679795502
0.001493422259381502	-0.007374671976692209	0.002781875558294677	-0.003406665009831575
0.003355232601413257	-0.009422752612466997	0.001200974781814803	-0.00300910224831076
0.007963088763207955	-0.005508080131868248	-0.006378167301693563	-0.00211026218175829
0.001462157691742874	-0.007777673235875801	-0.005778059471461053	-0.003306337773453745
0.005592573098444364	-0.003421230587925189	-0.004233426956570506	-0.003993635917675077
0.0008362132488574365	-0.002446682389378357	-0.007643929757054074	-0.004775748038928142
-0.001750627079766268	-0.004085489689242237	0.0004403657062792963	-0.004902646548001051
0.002854858675175866	-0.001792157103109469	-0.003828966322694615	-0.003722259624488548
0.001946652060199297	-0.003767860762074726	-0.002160974832522976	-0.004388075442538697
0.003456008718466423	0.002453168557431184	0.005386535428156342	0.00219758734830971
0.001209066396352077	0.001954594349724785	0.00751603404542027	-0.0006136455354004701
-0.0007694907551447584	-0.0008547819094985093	0.007753125866819987	-0.004419080781207003
0.002157223312130199	0.0005321504803576958	0.005861222734695588	0.002509847501911365
0.001158617682360376	0.004181469768201408	0.001275373780000689	0.001738748121735457
0.007109708366353278	0.01470954373971875	0.0008239553876955499	-0.003678663753433708
0.002021187846794566	0.02368724290710877	-0.001769101436226129	-0.005631498654063248
0.002367908030958697	0.01930374539908256	-0.002351015231485664	-0.001041387494607487
0.004207103306269787	0.008875922450836954	-0.0009170855675218604	-0.002862929089245292
0.001553203277816676	0.005435530159553423	-0.001328377986988631	-0.002560763271325059
0.001316551768041191	0.00777971326166758	0.001087311684583709	0.002864856459987508
0.001104040927656621	0.009338448811408242	0.00228649663427365	0.002876097624977173
-0.002598565505139183	0.008438770772605356	0.001670043760803758	0.001816829228283383
0.00214292058492122	0.01158570217961302	-0.0007071714022981737	0.004333074386677779
0.002052533945882873	0.006683200134943673	-0.001084559813989017	0.003572695250652852
0.001449691298457124	0.005368542947441717	0.003687943275177118	0.0002863240977612932
0.004113095711980236	0.003407988319946527	0.004918291582150556	0.004372932773828645
0.002726749024389416	0.005359151354984357	0.008645349489156573	0.00382995494030556
-0.0004676416008235032	0.00505518734361273	0.006826662885231939	0.002626777636357459
0.002849982327674801	0.006916569609911259	0.004120208884615474	0.002178627076041829
0.004150439795821076	0.008019432617942857	0.001068252410543325	0.00214423174603341
-0.00120213758416728	0.0005060843147131024	-0.003085810355172098	0.003696593556895581
0.004212593265743989	-0.005770686077577438	-0.004374021818746142	0.001616511766495381
0.001745773319578402	-0.003990855154657314	-0.009474030776465114	0.002707661695760257
0.001575980254874875	-0.008725152422886538	-0.001540552488686688	0.001928136137540888
-0.0006130707287662573	-0.01401225360193721	-0.00693746802558658	0.000175795216378142
-0.002962546702606136	-0.02192353393263956	-0.004700677276211567	0.000493666339501873
-0.006262534591767926	-0.01095948593835937	0.005004243685498952	2.592732046502888e-05
-0.006875426456861794	-0.0007956798129149311	0.002300527528016667	0.003353575138981891
-0.002392743109574304	0.0163986545181224	0.006736869737052765	0.000249284163654764
0.001020676031088084	0.01463577957973866	0.002266404684018889	0.002449765959592424
-0.001588412316176066	0.007814912870405174	0.004973922230656965	0.001903523402457076
-0.007407317885108728	0.005326365478640808	-0.0008854978305534489	-0.000836157048777251
-0.007022091113355299	0.004163469135330823	0.0006656631811490303	-0.0009199123255608204
-0.004084419149609214	0.003313704392429929	-0.002540220529379305	-0.00293518746250268
-0.005266866682652467	0.002584837505926755	-0.00275911021442083	-0.005464735724888632
-0.001797304085052603	0.002845865127317968	-0.004171963734556946	9.62314734080058e-05
-0.002216025834013187	0.004290721637209493	-0.004990824275505037	0.003068260394219697
-0.002318640950892481	0.000351358991766656	-0.01098289130982965	-0.004335093736775196
-0.001200846891527832	0.001086456164075429	-0.007024504064142918	0.001058076509994131
-0.001252682515545786	-0.006745566208943088	-0.004696262867395679	0.003034211340637043
0.001716260408432602	-0.009603039591328305	-0.005006439036255678	-0.003249223267315048
0.003554019334062723	-0.008555965713786135	-0.002463825992888558	-0.002153258823408988
-0.0008328379715820143	-0.01659928598023325	-0.002941671290626405	-0.00326553647622075
-0.0002312758314029822	-0.02152160167178247	0.0005781316705997231	-0.0008773977272797679
-0.002931577708975641	-0.02257436608821	-0.0005554685688732448	0.0007108535106232767
0.0003264779579536266	-0.01487525965476242	-0.0009718457653253687	0.001103457103594584
0.004135739294834215	-0.007743160905227239	0.00185738014316929	-0.000474160594532618
0.00592330156760023	-0.003046590652401251	0.00455213214239225	0.0004890075020386243
0.001545088193162078	0.003744667356432543	0.00954278395099248	0.001013909777659661
-0.001076279429128685	0.007145436032873521	0.01137256085751334	0.0002607545050709492
0.0002974058453717543	0.01310968413712479	0.01492297891090632	0.0005696739625602769
0.007096117729289025	0.01898639966060891	0.007971260386557355	0.001447641794920253
0.006327321503548566	0.01559428647757626	0.004936101153538973	-0.001466629649165095
0.008741005790562105	0.005681012111116345	-0.003642015068607457	-0.004664350516229548
0.006102859640778844	0.007485174695027721	-0.007922483229714046	-0.004227311094967181
0.008869277659409015	0.005550615432313063	-0.004355769343887466	-0.001498778026653554
0.00907228601864592	0.0008224499363692391	-0.005842495537216582	0.0004128243214217034
0.007189465011660769	0.001924590826933098	-0.001307006700168376	-0.003077596880319421
0.002495594467059788	-0.005263467728138125	-0.001427125029176688	0.0004999105904956767
0.006714236351212544	-0.004275045604090849	-0.0007452295505534131	-0.0005524332223167879
0.005468660022073413	-0.01048455863504903	0.001994286025579784	0.00555027737992518
0.007716641508282778	-0.005207723329944676	0.0007948656806011341	0.004776202170530871
0.004232478911876754	-0.005645726603047661	0.006081101810034049	0.003848873012296625
0.00330442028549149	-0.004666823633964536	0.003703330195316035	0.001887497463432836
-0.01111160581641166	-0.0001101936337820736	0.005134785902954899	-0.0003399802355147436
-0.01059339550183648	-0.004504197176181331	0.0009673052243350132	0.0007366071972385928
-0.008918771175807071	-0.003104622417323051	-0.002740103305006965	0.003797702307728799
-0.006375917794778798	-0.003842065420702895	-0.001058346911205729	-0.0004897443306562475
-0.001067618973214249	-0.004698204686613829	-0.002865330782722098	0.002061358670478929
-0.002731455857245831	-0.006525273264111751	-0.004487814924274673	-0.001134720679414479
-0.001540885295832189	-0.0006151160806097506	-0.002018007371727311	-0.003270714409585881
-0.004856193787308397	-0.00298661941565947	-0.003000394479449599	-0.003035193912019723
-0.007072639398425814	-0.009339762705500038	-0.005106387797949839	-0.008788122979143588
-0.008637700739605037	-0.006338909725047801	-0.001134809381302674	-0.002705151703507326
-0.007544943601214701	-0.00410114377299391	0.001928088926943909	0.0006404221504650401
-0.008486282207076713	-0.005919618173180085	-0.001573128681408127	-0.0007025398272739167
-0.005360560951107797	-0.008193742755328448	-9.774890253605614e-05	-0.0008622181053970765
-0.006097939066541927	-0.005781010047839251	-0.00159941182789919	0.002656374869125325
-0.006656805066716557	-0.005361745534995683	0.003380967509953888	0.001777036407358223
-0.004612958001993341	-0.006302680775863079	-0.000662008646685626	0.003298897515194615
-0.005275049628615283	-0.004017509994850716	0.006981008349852825	0.00175691110107245
-0.002094277026991276	-0.004661094726568002	0.01011654907785411	0.006478124771061263
-4.652723571020575e-05	-0.0003919555103426284	0.01038627054433295	0.006868280548446333
-0.0007774451745367833	0.004448093216141247	0.003602233160807759	0.002619831383558248
0.001599344832480995	0.00181316013494761	0.002805931101520155	-0.002403199536826413
0.00377783685378174	-0.0005169592057195849	0.002397971599684355	-0.001555078171650471
0.002906755885515373	-0.0003795052624478013	-0.0004022963714152943	-0.001845209155441892
0.004340643357854276	0.002491452266050285	-0.005882365264800935	-0.0002435788361301001
0.004706723926743483	-0.001344184241149454	-0.007658076528331855	-0.004024664726433896
0.005820941564519493	0.003560561783107362	-0.007279970445745854	-0.002208835370955051
0.002223989122725923	0.001344685655212996	-0.008513341624513884	-0.003231561748937818
0.0002442014828357962	0.005041127852656574	-0.00293701483292825	-0.001309539715063359
0.003167535082682132	0.000548180192015	-0.002654610107976162	-0.0002035825481213717
0.00117171137208694	0.005848904229219365	-0.00279239465856517	0.002371150841022912
0.003313425432694932	0.007115024462623308	-0.00195553569453551	0.0007887351113398623
0.002329967200665795	0.00552945708910879	-0.0001449284240047018	-0.00167730472752465
0.00096498504296051	0.002186180421584019	0.0004046568959716561	0.0002806482419631981
-0.004765879850143183	0.008828532734491381	0.0006820228144801685	0.003054746136205174
-0.002588835305382307	0.008995522726555197	0.0008632098564852773	-0.0003615190749889062
-0.005430848484735997	0.008778718103453605	0.003123056238086742	0.001849482535196947
0.0006486274954610354	0.007227849735904852	-0.0009553587313828255	-0.0003883417563531011
-0.002487048230573196	0.00773868164756067	-0.003079326116966077	0.0008909867921612948
0.004476858928214285	0.008518575337083896	0.0009708236975951645	-0.0004364422778678439
0.001082671321936301	0.009465312512926469	-0.002770709751958437	0.00223293796681595
0.002177454644317507	0.01181761563277034	-0.003117942691471015	-0.0008473167224771712
0.004168140937459205	0.01144238094264808	-3.045154901081634e-05	-0.002591848785376917
-0.001086748723146074	-0.01090549568857845	-0.006512539610554574	-0.002972081220729821
0.0009740415243971258	-0.007846841218299773	0.0007174505611748196	-0.0003516376800291117
-0.0006150139864914816	-0.002029476115375701	-0.0004921202696479926	-0.002046672291442491
0.001108421163639553	9.701217174060573e-05	0.0001661531903742348	0.0007890511339907221
0.001949991375385941	0.001207795193672828	-0.004725600169366179	0.0004395678789832788
0.001963453016435424	0.008059251499621816	-0.002020132606755346	0.001234799671880891
0.001478770513739059	0.01851039065239002	0.001666004684057371	0.0004854879165188292
0.0012027787548477	0.01247075833560518	0.004430619207702101	0.0008950475681492213
0.002995929283039157	0.007590941076663247	0.005028477765149869	-0.00291731059503587
0.002753073088069541	0.006199260668727845	0.00441632846167466	-0.002528421563419329
0.006461524254577735	0.009376506759342221	0.004463780513639431	-0.002848818684941277
0.003087189388721184	0.0009312332665546624	0.005604808830619212	-0.005725166852817082
0.003891780132200201	0.002879925936167006	0.004713863583215106	0.0001494987658683215
0.005013216275294094	-0.003054485172912103	0.001704966852504952	-0.003816206967363199
0.004528548313823614	-0.003998798332352136	0.002968008786803798	-0.002383796483392488
0.006681967352021316	-0.006876892327249711	0.001173561956684471	-0.001813820960878193
0.003383756838642307	-0.009345627659499206	-0.003707514508298725	0.0009099617787950468
0.001905283698970285	-0.009861491964364357	-0.004432446829632501	0.001011760052167562
4.913668045260162e-06	-0.008095965493758479	0.0003642930166080482	-0.001535718678489269
-0.005896018414751666	-0.003728072282998747	-0.005007231893612742	-0.0001196619054133655
-0.01111527345452956	-0.004672394559625216	-0.005287833968310536	-0.0008196401983225231
-0.01283473391303212	-0.006477616573445431	0.002513700757133451	0.002862213458666866
-0.0134427107122852	-0.004188761807833074	0.002739090171633308	0.002881128556900332
-0.009336579762867801	-0.004453883062189682	0.00108313614515192	0.001696950249413721
-0.007302469592975121	-0.000693394360497506	0.003110525319477851	0.004217374057655647
-0.01163744034526661	-0.00101625688170209	0.005126965234880288	0.005905121646792629
-0.006535956269308024	-0.0003806071297945785	0.002020360784390704	0.0002404845211381704
-0.005573146057342417	-0.003657593185989361	0.001436988674067011	-0.0007383707350442537
-0.003356917522839832	-0.007601938991678577	0.004386658622853726	-0.000681539502294849
0.0007118731409278705	-0.009064209000286243	0.001413678271938497	-0.001368912735871413
-0.002917309626093125	-0.005966006913649934	-0.0001888628423908049	-4.624169327725497e-05
-0.002257980694363061	-0.009270187678063596	-0.0007743470977102719	-0.003159464640390167
0.001243268938302629	-0.009843925740178484	-0.004194546336225468	-0.001870661977796169
0.002292898745461837	-0.004722412437488459	-0.001943324056836926	-0.002047007302070481
0.003086362442451918	-0.0005257912860754549	-0.007808219017641642	-0.0007853119396765024
0.002999523600428244	0.007835121707548565	-0.006929080685009148	-0.001055075637699143
0.007488896467945132	0.02074227105586906	-0.004211756970604018	0.002447893086355161
0.01163895021247693	0.01931066032469233	-0.003400922794254879	0.005231011401008186
0.005399697841945877	0.004681804700500693	0.0005922481979653253	0.00160092749787798
0.007029231534085003	0.001332299308876563	0.0005306273313616143	0.004327198658539772
0.007743263966692534	-7.299109412205311e-05	0.0032964819390445	0.003557768426648927
0.00598683794277415	-0.002989439955902367	0.002910158634047945	-0.0008302506141336254
0.003554228300807425	-0.006195105503677432	0.007634107036693106	0.001829684331341533
0.002951921550743293	-0.003055576029791856	0.006067903361261569	0.001232776455818353
-0.001622455505258239	-0.0005564557254551318	0.005407335322170821	0.003556183580202183
0.0004937674957429992	-0.001527949868020679	0.001146230865913999	0.0007834488367551538
-0.002710991274551144	0.0005684157541995643	0.001825119791199873	-0.0004995233031866458
0.003970790949972711	0.009072804885900482	-0.002244573510233946	-0.0007435678824489119
0.003050796080494739	-0.002832855881700313	-0.006397527263567479	-0.00186263833557387
0.003275623980397954	-0.003656095759990263	-0.006942964043526317	0.0008167669282681383
0.003230722399461803	-0.007346142463477697	-0.006787082306810677	0.001782845568654541
0.0005046703602695487	-0.009836775978428402	-0.007252082075804364	-0.002626546751374675
0.0009141097913517209	-0.008531834293376773	-0.004780658435331159	-0.001916231018178876
0.003423415862493898	-0.008332033441536562	-0.003660020060039159	-0.001963549047990887
0.004457579970379274	-0.009297980452827643	-0.004240930349855928	-0.003708469913422626
-0.003107390254627579	-0.0003316780824198008	0.003031432480002197	-0.002791979891048029
-0.001810427893521325	0.0001288055798641073	0.006189963835220394	-2.474716144470162e-05
-0.001770098494728181	-0.005578897671146556	0.006846062289064272	0.001711261381949178
-0.001090428978253629	0.001357117973778481	0.005440646513224948	0.0003911648107056056
-0.00902056090846216	0.003728064895522048	0.005823020902726251	-0.002262919092945505
-0.005198740126761388	0.008125937912100738	0.001961510068710615	0.002136604817983331
-0.005980592623924825	0.003912018336549641	0.001495348018745293	-0.0002686509112017575
0.005612203378647566	0.002520708917812691	-0.0002203407539495412	0.0006624758028698984
0.002953678390026774	0.0009572071919858616	0.004393613989704986	-0.001141566318685677
0.007141446600758773	-0.002455034861888332	-4.329052653819402e-05	-0.0056989378073839
0.003861457737346945	-0.0014297317988839	-0.001053120425445783	-0.005369347113483926
0.004074328743263736	6.300084338740771e-05	-0.002686447095733245	-0.0041259879968923
-0.0002549791425455262	0.0007402724547251263	-0.002809850298586362	0.0007813717276924691
0.00294110632345928	-0.002962373080623725	-0.001786546674151468	-0.00184779917386712
0.00276369370069799	-0.001794015690585095	-0.007552037134407204	0.0008508952012633329
-0.0006180221649744913	-0.003846006846688053	-0.0009726624989871682	-0.003835490719854555
-0.007080419600938147	-0.001939309729130888	-0.003419595903169789	-0.001479520933861231
-0.0111234723189913	-0.0001296776599925173	-0.003486065932016407	-0.001937335622238701
-0.00133175906749972	0.002291231424471816	0.002615337477976778	0.002635215391452064
-0.002826900437581617	0.003772664202982426	0.003141691765827259	0.001310568715929903
-0.001263963074549826	0.001782683401485204	0.005018544291317022	0.003063786389678399
0.001147144862517561	-0.0009666914454346146	0.008475254342550106	0.001383946168467637
0.0001869953872000558	-0.007951774918743056	0.003221722730454351	0.002827161022329863
0.001333819715281632	-0.004324692118777903	0.006849048940724073	0.00358954600671637
-0.003090776703675675	-0.002371721334755395	0.005166619075927572	0.002108388851589393
-0.0001550226824960755	-0.003628645432199004	0.001971515757937252	0.004136209472078843
0.0004580977025565709	-0.0005282271295380682	0.004971841115737374	0.004822804642292721
0.001611300962109879	0.004255612777480829	0.002379784676537996	0.003063745597676073
0.002092756389748127	0.00810294830714889	0.00166904098589884	0.004289020844114393
-0.0002192378576303369	0.01262450675095722	-0.005956516082760506	0.002251102759647087
0.003762593891785984	0.0320612208205187	-0.003430656252521462	-0.001309416766170867
0.001608666625342683	0.04422058515701822	-0.00976619347464237	0.001557359560280079
-0.0005174688157339362	0.02590685661842618	-0.00587117869837325	0.0004752741495547381
-0.001719949934537992	0.007062898693226929	-0.00140557556188348	0.002743348596412702
-0.003923524234584936	0.003096110639779697	-0.003627385400292728	0.0001148737582315905
-0.002265098808026238	0.002021530345199987	-0.005271055430530464	-0.001212180734579706
-0.003436804176307856	0.004303924029354244	-0.004445992630364116	0.001374506061140199
0.0002201851483758713	0.0009036441143253779	-0.007433753740806873	9.505662567802115e-05
-0.006330510983538611	-0.002952276983458932	-0.00488482801286153	-0.001775682160679712
-0.0009584935447442518	-0.001252292321753569	-0.008858981194774117	0.002318344047240715
0.002276726902925427	-0.003106971224405884	-0.002426702727566752	-0.001192225350758523
-0.003139161805265664	-0.008244153303428646	0.007334054521370226	0.002748447755860252
-0.001661208969622045	-0.007761968461977247	0.005882360520953103	-0.001998967112626197
-0.004820493906565589	-0.01132655793998205	0.001942085556793325	-0.001417603174571839
-0.003163936594348036	-0.009854465726875625	0.0009360869026174634	-0.001440408685398948
-0.008885312419971753	-0.008759117739645753	-0.006412477272794473	-0.001874799528280525
-0.01043821703453348	-0.01241778571845121	-0.0036657557269356	-0.002316832824741767
-0.003115190311761997	-0.009100580980102919	-0.004844895144973235	1.759916183776196e-05
-0.0001627939284937107	-0.01453513294977735	-0.006793248191622316	-0.002943715668194341
-0.0003915590534945042	-0.01434505699396579	-0.0009360726429556416	-0.004191195354557079
0.00087185273191852	-0.01328615601813742	0.003515182114591605	-0.001271926384807563
-0.003187062090834815	-0.01496240677002529	0.004595441940324916	0.0007598459464515499
-0.001787768241452033	-0.01685192135308506	0.008246500209131083	-0.0007571206432182395
0.001529259115054194	-0.01134515391704422	0.01084349564759697	0.003088123897306198
7.498528979392803e-05	-0.003001035988321097	0.006914950608406702	0.002897338694587018
-0.0007806906209833351	-0.00417738999719529	0.007113175858808079	-2.472377177123618e-05
-0.001058540514456727	0.01801981674242752	0.007504531104252688	-0.003943727700604558
0.002924452244552902	0.02537040679531747	0.00791749824382562	0.003271750102793203
0.007215959798489329	0.01159397203230691	0.01064200225855631	0.0004500369902640037
0.004699735497094687	0.00764505398653068	0.009976825854027253	0.0008111662080118294
0.005981277666963172	0.004172768305905432	0.008458007748688937	0.0001741578202270351
0.004446909342202199	-0.004217382272352265	0.00346326724440049	-0.001443974712104618
0.007362403474282464	-0.003789215732259953	-0.002564442176666116	-0.00399552738410382
0.01381314382566648	-0.0009932653534183208	-0.001003436876606315	-0.007687299091086632
0.01289073840911778	-0.0003712565668614147	-0.005881948135592933	-0.00709985978622024
0.01130561118290989	-0.001651049096748859	-0.003130797298556369	-0.003691813740841857
0.009774583424753767	0.0001042377196253202	-0.007358019717598271	-0.002491301193791462
0.006795913430929967	0.006699806979470702	-0.005423036017655457	-0.002871070252787417
0.002668824505719553	0.003030405686935321	-0.00323484296793165	0.003664224106179682
-0.00341084050478696	-0.002949235095048101	-0.002924585784049639	0.008608677743858737
-0.007524979564873913	-0.006136982943235168	-0.002872313926377705	0.008958369817724857
-0.01015918674381266	-0.004226081007522781	-0.001652400558882012	0.002463234200533974
-0.01439878259194025	-0.004280983847612598	0.005288880713971723	0.004263825258969262
-0.01395827528817184	-0.002034650128178733	0.005900536364413798	0.001864192437458448
-0.01814229046376912	-0.00116403755650341	0.002202368202785105	0.002976575717229881
-0.0144104527875224	-0.002881371827879192	0.002239113565422412	0.001369892343569064
-0.006089049520473571	-7.497784901949633e-05	0.001875281033773009	0.001197525642985794
-0.0008904697426473673	0.0003656716446279402	0.0002752791200300911	0.00128500941083782
0.002130638903076795	-0.004615194533958995	0.001258682758883981	-0.003272107955078936
0.008793242085302806	-0.00175463922391594	-0.00102296851696458	-0.001397687474388839
0.008016354765176932	0.002145740673092548	-0.006053280556415799	-0.003809354848276831
0.01143113875136812	-0.001610968211237408	-0.002299197243708462	-0.003627166797963035
0.005691409359890255	-0.002274462832857266	-0.00473848970125427	-0.005117156146879228
0.001547617154664183	-0.000482696957400168	-0.006541432459758982	-0.002568558831739658
0.001383596879030226	0.002213387465501949	-0.006294183009292627	-0.004252229905583508
0.003039902350955437	0.001265746638082025	-0.006847521983331087	-0.0002678414469075737
0.0008457242534306996	0.002269994618784077	-0.004945906956975795	0.00116117482094224
-0.001874406574434656	0.002914839759959588	-0.009264020432403855	-0.0008634999711711151
-0.003153957259363052	0.004233675848604436	-0.01090112357485748	0.004344664648343475
-0.00243083859162891	0.008046455742447728	-0.002122055505092113	0.001760405021079503
-0.0030786107996792	0.008112292430443514	-0.0005024522588351443	0.00178298164521463
-1.971467469013302e-05	0.0101082857638996	-0.001970098267616738	0.006010389573762077
-0.000726427403386181	0.01023119352341904	-0.000874421318262169	0.002296654417902303
-0.0002570743461705849	0.01032576537449001	-0.0002174540671571529	0.002440971246041989
0.004615369671448057	0.01029390056122029	0.001571078544874653	0.003639381317705627
0.004030890120466297	0.01005385062457727	0.0007090924641450117	0.003459135271532702
0.006658238307113934	0.004429070997824838	0.003136359341130985	0.001036046070568837
0.009776514926135545	0.001274390390890099	0.001310504703543122	-0.001971232986423301
0.008744465474246149	-0.005009573308481022	-0.006391900456545796	-0.001046352529558761
0.005053233479294718	-0.006477116083296817	0.0002646686886855919	-0.001166722341179512
0.005543910238227348	-0.007289942038326683	-0.00255018636505127	-0.003172031508896669
-0.00107225287110585	-0.01318591779089176	-0.004991847323613145	-0.0007808205575311397
0.002147989027357462	-0.01460237651035447	-0.002841372346404737	-0.005321346714353503
0.0003131786347954498	-0.0124247305631374	-0.001795487652529836	-0.00315598691573752
-0.005354732762711674	-0.00834863364140607	0.0006840899205336106	-0.005941599434486849
-0.006115937769378445	-0.005172867874283467	0.001972918551755485	-0.001577305117689298
-0.009402750571208509	-0.007146916964457661	0.001997180544589591	0.002239547792447557
-0.004909670341790802	-0.008989171294601592	-0.001299079339098396	-0.0009731907071606941
-0.003120174052599534	-0.01999401793022158	0.0001004951073650036	-0.000791278115332732
-0.002808862641352405	-0.01659264998176059	0.001817251209925061	-0.001688157408483257
-0.001628595981315159	-0.01255778558787289	0.007424840621225008	0.000504676942552687
0.001914598878006145	-0.01196292054779334	0.008966437215985341	-0.001066015766250266
0.004722661687192409	-0.006366758109155482	0.008411063396062169	-0.002219647048954769
0.002959720914699241	0.009892538080739742	0.0006382704454889184	-0.00319736743863323
0.004967417861822557	0.02670925623620434	0.001959830133861571	3.209769102962326e-05
0.001624313445345648	0.02873643298776382	-0.003074371240700263	-0.001197827132434232
0.002380498823603037	0.03409334714357709	-0.005018156291167307	-0.005150910462627468
-0.00316591748283528	0.03164980651153322	-0.0007449173420613991	-0.003826095892826524
-0.006219814663140567	0.01517689215087007	-0.002513933543647078	-0.0007819698709737936
-0.006813496323489227	0.01127028042333364	-0.002172310615182273	-0.004915949263847188
-0.009801956961559792	0.009784684763411614	-0.007262656662675773	0.0004957225614632026
-0.008384924978745885	0.0017813883589043	-0.004697170394838003	0.004165181533427636
-0.007269755823568799	0.001178115086723178	0.00290971698259104	0.003295449672693731
-0.008412320719177699	0.0008975873111444927	0.002652418414212175	0.002110091294897171
-0.006461299443235575	1.389929537938884e-05	-5.846920605474287e-05	0.002570866627206488
1.572399832359949e-05	0.0008586446482755682	0.005123057763223946	0.002413184218506848
-0.003130980229724542	0.001140578862813163	0.008152060417635882	0.001747300725878386
-0.0001603890417197994	-0.0003913965620143248	0.00613290645782486	-0.00102014477513181
-0.0009096675945229681	-0.00212321611958804	0.006809164909188377	4.054608140325496e-06
0.006255729988685036	0.001783503027010762	0.0002443913351592371	0.001132121594751265
0.004253321320160861	-0.001042318215765734	0.002331736290898795	0.0007955867917533599
0.007623869240070801	0.001328395699803461	-0.000678970018518517	0.0007248419107080624
0.003075806578391634	-0.002910713361055087	-0.002535041141767896	-0.001076970958384194
0.002132646765585927	-0.002809872824900717	-0.005997716442902461	-0.002814888438478059
0.004182257757970721	-0.008823690879669076	-0.002693786779688102	-0.002697822682735857
0.003857380674742344	-0.009347017019018028	0.00222633776884765	-0.004656151783532399
0.003525602359718058	-0.006697898245049363	0.004082596708019458	0.00395855313230069
-0.0009347480464922374	-0.004883420545796256	0.005010432551809677	0.002376023373279444
-6.049021038029721e-05	-0.009098213220373776	0.004767671907374147	0.001567428612290298
0.002169263852994123	-0.008098774487756222	0.0063849613705516	0.005843385261892892
0.005232142347068018	-0.0006548016210912652	0.006134441503445658	0.004177165487615341
-0.001462865460849417	-0.000953694020044837	0.009293909699724514	0.007181884408122301
-0.005468614083356171	-0.003628862537862038	0.009347284132487636	0.006270986175206944
-0.0009640111630184455	-0.0008785541451425214	0.006057074444344352	0.001429744899426851
-0.005942406407421899	-0.002844624086759689	0.007586412356591374	0.004291121838367551
-0.009370031376118802	-0.004738794752650603	0.00535058678928704	-0.001647073395502302
-0.006489777632907841	0.000611641145790989	0.00805036092395885	0.0002943163342214325
-0.00552637576192399	-0.005738345865539458	0.0009011066512477717	-0.001133342592277785
0.000446884401508613	-0.005968105764492374	0.005107515082275703	0.001924396582782052
0.000696936375686711	-0.001375952696470588	-0.0009270392340485499	0.0005905091733230402
0.004470609168741871	-0.001225055905623181	-0.002423444378702704	-0.0002624192286104494
0.002444908790556346	0.006478466551100733	-0.005231192046890402	-0.000115061893918296
0.002378214074365332	0.001853719003287359	-0.00136321183659598	-0.0005269122920147157
0.004530040764977005	-0.0005001160605006781	-0.001324052640494103	0.0007849681462628145
0.005968398780762635	-7.081692174033532e-05	-0.0001642058135670968	0.002623442840259555
0.00782064679020607	-0.006325837238988359	-0.002641160726539802	-0.0003647592208780668
0.005661992012730132	-0.00385094930605078	-0.000441403747357246	0.001949336682045596
0.008248162593258081	-0.001554583263001279	0.0006799508033950012	-0.0002704240057745929
0.00766310670347913	-0.005794233772293434	-0.009568130976801811	0.001910276291750912
0.005491627552824235	-0.006180365215493476	-0.01248177908644472	-0.002973823975847174
0.00543472947978417	-0.007872643834204119	-0.007905576548180943	0.0008684570982548037
0.002643326824762971	-0.01443851344951098	-0.006072123949679989	-0.00152654466714271
0.004201635655628973	-0.01553806016073811	-0.005532558131421441	-0.004969394295765848
-0.001461929442339535	-0.01467337589038939	-0.001080525355650626	-0.0007708820456775337
-0.005333222863345496	-0.01227598493826736	0.002287416830706043	0.002061452356485069
-0.00273760936738071	-0.009850608106270167	0.003943975705718853	0.001743158042611206
-0.006109378512714399	-0.009538001639884651	0.002088959037527423	0.002587929438753596
-0.007320826978708529	-0.006835767826740999	-0.002108017225021088	0.001697588980348724
-0.009216808394762023	-0.00211225488790475	-0.003169995290231481	0.0001508412127818575
-0.01394724142867036	0.000464143127772451	-0.007568140274787388	-0.003829135823182857
-0.01373746170724612	0.003149463378331855	-0.003437814854820109	-4.636700625036169e-05
-0.01308200983404297	0.003783986391473041	0.00137447700360035	-0.001564501121702789
-0.01173274585018356	0.009511883700776887	0.0001262317288483826	-0.001969818747917292
-0.002062926895167835	0.01923986988650127	-0.01255293583429732	-0.004475894434044459
-0.001151026773634868	0.02269000149653267	-0.01932301253882948	-0.004373980265514605
0.003888910436607613	0.03458017353344646	-0.02412947371056759	-0.005814051962322118
0.004471986422137164	0.02853235170742725	-0.02924461275784127	-0.004969994386711196
0.005274791705741309	0.0167037010430404	-0.02557473779031492	-0.00259851528716747
0.008063764276462842	0.009327455410282237	-0.01200363337568416	-0.0006931033905076396
0.004772104614749036	-0.000391543053902711	0.001013222902330846	-0.003621666794203951
0.005667864437161454	-0.003285695904275684	0.007063637617184724	-0.004144534923428834
0.009356634109921814	0.004329165794099853	0.009683023445222651	-0.001576781331996486
0.008247003686343951	0.002690500918626439	0.01356706274057512	-0.001865510857894849
0.005209557048355113	0.002457843997574332	0.01527978476763411	0.003987306742027217
0.006957016083279149	0.003963053399751565	0.01710432196644809	0.001333552607056475
0.003626475676910676	-0.0030731537464525	0.0268936435102608	6.073245106477616e-05
0.002612379991085756	0.0004060298565538004	0.0281584862753903	0.0002427163723763787
0.004795819471307187	0.0002498706690554255	0.02087434021707546	0.002503367740328301
0.004672530260901918	0.006409646248678986	0.02278827964001206	0.00147538116456357
0.004257632250353765	0.005984726011714463	0.01628397352977851	-0.001106363244166478
0.00531114708687643	0.01222602625383878	0.01548617577849608	0.0003048901881471841
0.005882608566864856	0.009924419327551654	0.008894719783859638	-0.001674616281360674
0.00542872210226145	0.008152471117619426	0.003770535073994993	0.002609631500415954
0.0039834016432183	0.001311393237643523	0.0006752480199039725	-0.0004564045067566272
-0.0004074052224313372	0.00133376877760012	-0.002139817440238482	-0.0009506560700203748
0.002649045603532053	-0.004631579155048885	0.0002848041273205729	0.001725107266510284
0.003980874720238545	-0.009812405557018308	0.001228639547411632	0.004454778669265125
-0.0003027306289465326	-0.01166067432395599	0.001372715410830468	0.002359542841248652
-0.002957770294510349	-0.01480927649475839	0.004933999404358656	0.001095062181596804
-0.0003364528288153174	-0.013576757848028	0.002632269399440704	0.000564283723267462
-0.004898837691523684	-0.007507175194738871	0.002294634918760027	1.787696619794461e-06
-0.006130071294056257	-0.000588869659341326	0.0008331936500073173	0.0009005403477178327
-0.002882099958080459	-0.001305073891690295	-0.002160674067668278	0.001750013184533685
-0.007527435201363071	0.00168741119414385	-0.00877487688199763	-0.0007626541321353594
-0.003885496396220594	-0.004768861874328924	-0.005852361440044422	-0.002603631935939489
-0.007203242350662263	-0.0001080826312592605	-0.003908795280329934	0.001465157176876468
-0.005480092367776026	0.004598653344686215	-0.00649715146769957	0.002280198367472079
-0.007184215623459887	-0.002707286505114041	-0.008880879016460499	-0.0003309808852960475
-0.008164831816306646	-0.006225946605380153	-0.007920468515700109	-0.003337656976962095
-0.005088232746974648	-0.007775181075958618	-0.007851609422115345	0.000100331194212354
-0.004716977395754772	-0.007364803027817438	-0.008659262404102395	0.001532188819201928
-0.004702644068227552	-0.006719903274301277	-0.009820854641908724	0.002484344416208172
-0.0007441280993529781	0.0006529169891076923	-0.01194202062133568	0.001813890100217788
0.00186991666903177	0.0009289608643640748	-0.006472379041551915	0.0002636613345602779
-0.001068750961462988	0.003602875921977227	-0.002235646575043474	-0.002363314685899415
0.002839287593463127	0.01124574128673676	-0.004634767540926674	0.003516379151766283
0.002834245757594141	0.003498497621033227	-0.00794445792118768	0.0005895600621489924
0.003262760327888097	-0.004736049520319061	-0.006832667994183375	0.0006180333249343121
0.003622523761483638	-0.00772609995408949	-0.008438535062867725	0.0006782972972408665
0.003493412699501575	-0.00310890163225892	-0.006700909157378022	0.002331780485028073
-0.001273933143028655	-0.0005033048982244801	-0.003968574744587822	0.006024646992027516
-0.0003248352597608225	0.004518346860858983	-0.004467438403682074	0.001125368941144794
-0.004571711384720853	0.0008898363335731608	-0.005686330450487311	0.003512565954613874
-0.003637223766808865	0.00608556803580724	-0.008673195806838844	-0.0003214685000728476
-0.005587137465108452	0.0100921035974641	-0.009454939549691409	0.001713510460812388
-0.005442322279447537	0.009893517456498318	-0.006641967095537945	0.000608315733502491
0.0004615683059690659	0.004910498341579079	-0.008581111898442134	-0.0003153253497298872
0.004035837144107957	-0.0004771189127910014	-0.009436656634045673	-0.002355168098195147
0.002623518236328312	-0.007937619156355737	-0.009346994100836959	-0.002394744388802082
7.925739675041314e-05	-0.002708831504540896	-0.003904566422667914	0.0004365948187852788
-0.002697374117045759	-0.002867631970491843	-0.005486506824106614	0.001746891392054512
4.075371037359099e-06	-0.005027647520924314	0.009191125599793267	0.0009301704055164667
0.00121789826276614	-0.004347778185059655	0.002791848204883213	0.0003954696170543224
-0.0007931735696558763	0.001958699240187205	0.001642771500937419	-0.0002412514391724594
-0.000313791813611126	0.01318774415014416	0.003840465853643363	-0.001869589282863103
-0.001910990402345311	0.01749458563929733	0.0001228261275989963	-0.001734746327850465
-0.0001905917734340629	0.004772951115422721	0.004590210810341143	-0.003178170818126384
-0.001506025227070744	-0.001099476480097099	0.004654977253447695	-0.0002190464119243582
-0.0005706217067491427	-0.005236385869502978	0.0004191643126913374	0.001078345932102213
-0.001120706852806628	-0.001892641412702526	0.005374312496061438	-0.002923922406724076
0.002269598306703622	-0.001821869092183143	0.005019951267974066	-0.0006563819643635012
0.005254768627205824	-0.005530382688151189	0.004543357785863634	0.002485654291199079
0.00420887852375362	-0.006653889263065572	-0.00151203875366725	-0.0008277649378732759
0.005750252689008191	-0.005391564371484014	-0.00302522157866886	-0.001429762628251203
0.004743044487327461	-0.006690743766069983	-0.002116398554947439	0.0004914072804710856
0.001648464284410455	-0.009170034856368341	-0.002056407698726243	0.0006401152092535587
0.004081690939399012	-0.01598929468653905	-0.003411051492947502	-0.0008549975059402778
0.001393743787562702	-0.01388831554144987	0.0009816206983924698	-0.001153583822731632
-0.0005437614787078571	-0.01572821340845849	0.0004338670475822439	-0.001202710792341442
0.001636879756873335	-0.01720947252422551	0.00589569697486744	0.0008500270974794183
-0.006091800305509969	-0.01030396861641374	0.006970473686773305	0.001310291544398395
-0.007678789291095046	-0.01101893643994526	0.002343470068893164	0.004218782619044676
-0.006030797119492387	-0.008346392591631613	0.007933270047596119	0.00270678448856234
-0.008825143524360434	-0.005924064980377616	0.01032579585285755	0.003731922236132505
-0.002265020484147479	-0.004667937245821117	0.008513079476928885	-0.00256155258524361
-0.003681798200551995	0.003025252927250565	0.00198223968370975	-0.006755482163177627
-0.003857693035856184	0.0007350468259885517	4.663927587883289e-05	-0.005213996433646281
-0.009091480229320346	0.0032442273589069	0.003208965210227897	-0.006563263876789877
-0.0001515642170031114	0.004624668552295777	0.003685232784745797	-0.005058078365516971
-0.002874799555809349	0.003626178072440398	0.002994634180288429	-0.003742825048749448
0.0005274086466142603	0.002987033317889468	0.004405699169658636	-0.002996379339517406
0.002759229686672718	0.005940328057562113	0.006399640077667784	-0.00264833364617705
0.002040656776062686	0.007605167297699101	0.007387573761801205	-0.001487561494459753
0.004181910000182894	0.006320410148779446	0.003880137132536085	0.000459803950878464
0.00718538682523788	0.01351592548809321	0.003748618286514584	-9.427047698928962e-05
0.004979732278452454	0.01755798205351797	0.0006207187293499338	-0.002026264874912544
0.00608985325304764	0.01384851295175568	0.001570256196100691	-0.0007105882307696228
0.007100828234283492	0.01930364670471715	0.004463674568288972	0.0005716886990361852
0.005946049932382149	0.01463708140063399	0.004351605713903184	0.0003398858831247189
-0.0001537371275802342	0.007646781256750251	0.006232777117112821	0.002056290107079766
-0.0004803420866737701	0.006618246933890208	0.0070732039119202	0.001384446951272658
0.001728763219290632	0.01148374178284789	0.006241240503219302	0.0001710998361037619
0.007034143022731929	0.0107046385360944	0.004886625902634236	0.001129648863957784
0.002886435307089786	0.003285769374656492	0.001640766853929346	-0.001041156484798894
0.00418863848259152	0.00691862659190736	0.00284989747511671	-0.002410348305866152
0.007008407136361369	0.004336995680376802	0.006228357172857806	0.0007384371207874999
0.005830526931084354	0.005415217138496656	-0.001930932463363823	-0.0007027566148274391
0.004903254668628097	0.005405589414196563	-0.001998885252268274	-0.0005706277941030466
0.005535274614790687	-0.001594282582567643	0.001050512234562178	-0.001941386007495948
0.005937726461826488	-0.00206966877806631	0.001860824227801333	0.0001942162949527487
0.004104428507018767	-0.005288608115745731	0.001150064333617395	0.0007733684618581275
0.0005644264869611821	-0.006951566555473982	0.003991281815517249	0.003391603461436197
0.0005750551804522526	-0.002930804494901446	0.001403148421138106	0.0007575378636886371
0.0008912757657396271	-0.008340827918481392	0.003032102667214637	0.003673468490905628
-0.002766037185675708	-0.006834607344675793	-0.0006120667946640632	0.002075054117529646
-0.005846833392883865	-0.01206488825904906	-0.001138863573046308	0.0005004470293354417
-0.005556335556411889	-0.01158738606972097	-0.002663747399953033	-0.0002912575567925281
-0.006060826173029047	-0.009226316512089848	-0.0003209916969066379	0.00465156486141234
-0.006988581495492785	-0.01126741100228813	0.0001112295693868003	0.0004356926157872157
-0.008884778194829263	-0.01194339198606159	-0.0003973549432137048	-0.000643110880499379
-0.006803317242450111	-0.00664086956346187	-0.004400766718677198	0.002381688118887869
-0.005359395976535484	-0.006431968647442994	-0.007571089981502384	-0.001859823783051148
-0.004332325607083279	0.00381842005708332	-0.008854468191332057	-0.002269092666470926
-0.004926022225895654	0.01901972030953671	-0.004697504925710087	-0.004478452125356194
-0.002632404189540561	0.002249463553211384	-0.007676521229522507	-0.003648537270588401
-0.00448116679711211	-0.001843899015852364	-0.01168157850858992	-5.776264188093554e-05
-0.006053702284965075	-0.002476199081788198	-0.01092227254594001	0.0003882001932114738
-0.005307177530281054	0.001362968801264778	-0.006477376565917775	0.00195182427789035
-0.004145699632232914	0.004258355122500408	-0.0006794132833795232	-0.002053982150829407
0.0007126522302536182	0.005253777866017758	3.143733980170743e-05	0.003158239792638021
0.001758012562198928	0.003950005262806822	0.003030966520229153	0.008743586602570318
-0.000715229774565662	-0.001599803495443411	0.006832847754941953	0.004187056754551987
0.001657579350417066	-0.0002271166919957187	0.002365967937027141	0.0003663236303911388
0.003651791028766994	0.001758510678967262	0.006899908166294924	0.0007475013821285246
0.002463393487400807	0.003925074239567983	0.002503107228975057	0.002616700382734149
0.009289050795158609	0.008036707144621378	0.00129562835671882	-0.001631230410527111
