0.008630980727932664	-0.02134385345566684	0.07667090716689974	-0.01061734345863611
0.003398379324942328	-0.01138879446289517	-0.07577102035479197	-0.05131177560451579
-0.003845961853912445	0.01221082076464886	-0.1177678442986548	-0.06163173460779387
-0.002429722486024605	0.04695750762149898	-0.1088966915238137	-0.0532169994153928
-0.008345347838968615	0.03264755381013705	-0.1387706440031351	-0.01799880009978507
-0.01526659133562374	0.0417558176470479	-0.02510593868388875	0.003819704747583262
-0.008143538674268876	0.05116419864311435	-0.01916391369456237	0.0255488876819306
0.005885865830175249	0.07855695486853405	-0.003948021352891002	0.01116241611340437
0.008760912828960831	0.04935195785350598	-0.027025576038543	-0.007829447134937042
-0.003512322060733146	-0.0157813121576175	-0.01807044521804002	-0.04138782865662687
-0.008778849717799294	-0.02596817401110211	-0.03074891981919984	-0.02278481325899991
-0.00980791598912477	-0.04353549893558223	0.1227302429272511	0.03138908406663415
-0.02893200794502114	-0.0649320226683409	-0.01558512546932106	0.05560279453944177
-0.007304902603697765	-0.04671368410265609	-0.04565451195640851	0.05070254432216915
0.003272778923515695	-0.02208664749038602	-0.0499955193916443	-0.01862606413298498
-0.001473696728820501	-0.0570056859358371	0.1053927426112663	-0.05515974410999232
-0.01099599043633429	-0.06384871593344654	0.2312696486960688	0.02513579734877674
-0.01237957848620309	-0.03112324373700912	0.09306211932056872	-0.005955146081573507
0.009406190172651813	0.01721400492702059	0.02659877475595663	-0.05869063675998276
0.03526024884282133	0.04863376341256465	0.02198577808457235	-0.09207518304203068
0.04141983818878938	0.04282640019126245	0.0859807968121392	-0.05116443242858654
0.02414378353383193	0.03703136411158709	0.03271086913543435	-0.05562900727815191
0.004134952159807797	0.02293386062601769	-0.03634089923145946	-0.005646341723946496
-0.009731797806487603	0.01401738250022618	-0.1585070680515895	-0.02981508772419808
-0.007251629158436398	0.04636857512263276	-0.2177114394925626	-0.02789065797713213
-0.002004883118696093	0.009794455037864804	-0.2684690832002957	-0.04852143426821311
-0.0007618808029335681	-0.02396910002151606	-0.08916076321725416	-0.04561002704731312
-0.01336542225104069	-0.04881280723918107	0.07899246739341413	-0.01850487294799249
0.01821274126371756	-0.02458769424495027	0.2669891206104004	0.05847504114639165
0.02862069869649068	-0.005627136531683463	0.2537000618373661	0.06783447876051944
0.02781627466778707	0.003881454519694704	0.09927519790190398	0.0560339926430476
-0.0002236610412178179	0.008100723091851621	0.007121379593863033	0.05489210939640456
-0.005221805072600789	0.005402935625140403	-0.01119147184115665	0.09368212166176905
0.01157656636677641	-0.001248257356029082	-0.03579352407097105	0.05785914962727633
0.002451987472986675	-0.003069640099735897	-0.0138506866946119	0.01021122776085885
-0.004380077519667246	-0.001548170336553142	0.008415551372910456	0.001601103798987611
-0.03629291916003842	-0.009820331834799878	-0.02817483407904479	-0.07007786902609166
-0.03281382433850987	0.006811527871300155	-0.04983079159812373	-0.09239331115188136
-0.01580492206705091	0.02691751751141955	-0.05377978878681833	-0.06700951417086376
0.01917149325936059	0.03176047169779365	-0.1691398215351105	-0.03272800055770361
0.01648869114907231	0.009284043905799975	-0.1226758254214734	-0.02480908771039773
0.001651908556731204	-0.009782528598358917	-0.08793864515007682	-0.01807563416834982
0.007325781888903309	-0.01633000011016717	-0.0007887002181471714	0.01698352640663926
0.004845505195032445	-0.03205159627687328	0.09522332578871205	0.04808603978138514
-0.005578119479522881	-0.04988754159012261	0.006602466130794844	0.06362060852392049
-0.001532130627553777	-0.03650131504662974	-0.03025033569933064	0.0625417317434382
-0.01084213029681875	-0.02993727346429014	-0.0328024495359772	0.05690475133998458
-0.04239436065618055	-0.05003490927330402	-0.02983151210486505	0.04711358258733458
-0.04123468897866342	-0.04396147378416507	-0.01829153265052742	0.008766115586483559
-0.01797256676858078	-0.01870897459505231	0.02844788117694427	-0.006928789915789153
-0.01005195494891046	-0.009662896921181718	0.02592761938502879	-0.01270640723730202
-0.018118446666611	-0.004563822895129141	-0.01688004669175443	-0.01715000378119112
-0.008118673802742086	0.03198157243150366	0.08324323802379513	-0.01358644984077113
0.00685660166748239	0.04177719580547618	0.02784567350733768	-0.04389072348555859
0.01130390780381721	0.0442322192850521	0.003962319792312676	-0.04558195520577099
0.003558183928607509	0.03533047560394788	0.07757456687294884	-0.01467109120255402
-0.008581615083049081	0.03168366890362821	0.06752838139814957	0.03527582224070094
-0.004792896836123032	-0.00204881468675114	0.03244274441685704	0.0647794655773896
-0.01131713160224974	-0.01882455989813081	0.008779910449533709	0.03839343382277025
-0.01265719033233288	0.0008292704686535862	0.02846478873242405	0.006930565468538585
-0.02262210977750632	0.006327615148145182	-0.0009272745430487889	0.01191891107545706
-0.004986396562585694	0.02507065028144274	-0.01879357485521201	0.01720546985921593
0.01297948282500417	0.02569030030578709	-0.02949439240839042	0.01037190471590813
0.01314689225276323	0.0221779566545902	-0.0347688737526707	-0.04086897783793186
0.01772931408093068	0.01263366630484074	-0.03651854828115363	-0.04071526198214171
0.007740628521267311	0.01899145638006549	-0.01142878016141336	-0.03569132869282322
0.008902280590064175	0.01660166798936467	-0.005668551293013796	0.003599591258782531
0.006992825721238914	0.0007672836692324118	-0.009430136676159882	0.01833688401354319
0.01597495374620179	-0.01158117361346152	-0.03501166194709334	0.01074902041161237
0.03692482372880729	-0.03398965749616836	0.04552286280973725	0.009701725942517496
0.05076389308256131	-0.06045931741409927	0.07826252014729951	0.01009964013147625
0.007088681272687134	-0.07183320305831647	-0.03255344788464409	-0.003837079118136468
-0.03419246290912246	-0.0764446737904326	0.0241254722250952	-0.02036784003354128
-0.01948705941545121	-0.07919488066694985	-0.03387454766710218	-0.0002647983317836333
-0.01303919493241381	-0.04398415265612519	-0.03526532852662587	0.02454531663794514
0.0006328331125383854	0.005801598119739486	-0.002346084903300522	0.01688263853020254
0.00550246570890408	0.03474399891175801	-0.03683307133556676	0.02731333796280473
0.01489207801484398	0.04809621541357414	0.006290307456344004	0.02840165092727115
0.005250483580158173	0.05821914281206569	0.1392601498898513	0.01944474155939601
0.01828826266559188	0.0705454288825136	0.06040263512506438	-0.01210582495278326
0.02478219707043448	0.07126043699810904	-0.001538064834235061	-0.0382726752831538
0.009815404950480291	0.03912849472708572	-0.0061478666789381	-0.02569976850235128
0.00498178743184729	0.03467699179683797	-0.03415778267162252	-0.007711542329428934
0.01023454773403812	0.03336071840386307	-0.007073771314623434	0.01187581765714922
0.0004280164367112271	0.02200020169215973	0.002437653169753229	0.00761520655667959
-0.01223877288949475	0.01581356375892546	0.04933316010136169	-0.009896231951045451
-0.001696741054440689	-0.0008690363285635616	0.03081981963347954	-0.0051881397563074
0.00204671502521945	-0.01398097055923845	-0.009736054531050737	0.002119383072020735
-0.01053293158711872	-0.0193978588416188	-0.07802043525758968	-0.01364006250685008
-0.00914985925397659	0.009405212544424675	-0.106405130118213	-0.02997757053233699
0.01260546751706962	0.006220136792924305	-0.1952923697515867	-0.01933786016192423
0.004163677015120997	-0.0007455142990290693	-0.1871018579888386	-0.009602395939307444
0.001083941120859747	-0.0003177992569400924	-0.1402436452580312	0.02617727276661957
0.006068881820272054	0.008156944543544285	0.2365740757096658	0.02723352274300557
0.008069789813056272	-0.002456314859040193	0.2720450510685789	0.03306333495691701
0.001867000162069154	-0.01261063637487563	0.1466965565836972	-0.02303534101564662
0.0002992225917226157	-0.007813224734471267	0.09885663190435931	-0.03730401257400533
-0.007991150066053445	-0.005429662706735925	0.06720618253204881	-0.01266058019645944
-0.003343978434710617	0.01120017295840519	0.01964223863005359	-0.0055746631062839
-0.007016063011120291	0.02982521281915169	0.006979396229869206	0.01833972417123174
0.003136064563811745	0.02770042863778174	-0.03541608812963175	-0.009575211931136264
0.002244021655499286	0.01189706935338652	-0.05725200532300596	-0.03545380690092581
-0.01249484718092616	0.002452368231985126	-0.09193650095004945	-0.03375237365311917
-0.01016056234287272	-0.01451888653426916	-0.0980567315825402	-0.03491931483451419
-0.007612226879135304	-0.03703594129820587	-0.07262616468439405	-0.02407360014868815
0.0007654834916326602	-0.01563961208116883	0.01790601387347103	-0.03033422858115108
-0.01452870074883809	-0.02798241858781517	0.130827762631651	0.009443468936781052
-0.01642014847854436	-0.0456508806999381	0.1809251286842917	0.03887567033909093
-0.01622518620034455	-0.05759867318118359	-0.09017292086993986	0.03679036640314271
-0.01483786506055158	-0.01245666904587333	-0.05945317538956267	0.01781099467844409
-0.02066788426059038	0.009218461648319548	-0.1191484820906713	0.01206353041716369
-0.01943945403411087	0.01236759600101364	-0.2076379103054751	-0.0631959580504068
-0.03858275951460595	2.610177491444022e-05	-0.213507359050268	-0.1047697722656941
0.003152218407093206	-0.01570723141259387	-0.08919603037571418	-0.05639980816015071
0.04786357733752299	-0.01313876442627055	0.4329755866860612	0.04705561100671166
0.05312888916106732	0.01108800268574904	0.3410762333065577	0.02359497083431307
0.04134889904985575	0.0004198040870397374	0.1230848569292457	0.02797256675321049
0.03058522115615753	-0.01631991510763507	-0.05158710017406803	0.04622669868195767
0.02380241203066745	-0.01177685965670823	-0.1291906235733363	0.06264629344632081
0.03170462607847194	-0.01099456359170178	-0.05057784866374371	0.04010385185301241
-0.008321605737045474	-0.021426255699929	-0.04641213759395114	0.03477282690122224
-0.03468202436314606	-0.04233577280556077	0.02204654323548275	0.06082312473873514
-0.04141869280598148	-0.0386480404947394	-0.009049798266012123	0.03555979042090621
-0.05600204053523279	-0.03286855588003759	-0.0095425411281419	0.01673377396723844
-0.03031790445513401	-0.03180929200169884	-0.02097688721686578	0.008993408319906237
-0.01992669169415762	-0.01088423938649551	-0.01729567464887603	0.003449024043965994
-0.03426064522139107	0.004520228646339248	-0.02083602800590228	-0.02245477722137026
-0.02126939909770859	0.01439530907119267	0.01124261511691456	0.01796920315290372
-0.01279471223964233	0.01985989127349891	-0.008367687630427409	0.01588993751953076
-0.006712316584864626	0.0255441295555364	-0.0463086783432707	0.02114423024019137
0.001267881565178779	0.03090001633687826	-0.08822868935883436	0.03286119707986748
-0.002771386960948864	0.02977777410076883	-0.0805642893712562	0.01273418826402785
0.01442097865493405	0.008433340608472194	-0.1018082365463737	-0.02384228074466534
0.006796242203730847	0.01246094720756245	-0.1076923209132943	-0.04792699599236513
-0.002723070505102271	-0.001516568297470847	-0.09415676451199362	-0.0624264153597728
-0.002232660209456495	-0.00171908988825509	0.05549289696415032	-0.04621061239524462
0.01601537586131904	0.01595675525089131	0.04149663137646125	-0.02513827774354837
0.02393271330353921	-0.007092232872545829	0.1194049789770662	-0.01004700937851809
0.03205924065354909	0.04199991565852784	0.09068683666309357	-0.01388834498982989
0.01687648149902791	0.04297402061718744	0.04432965197974532	-0.02610396420532439
0.01511176890658864	0.02663217829039123	0.04205592051816644	-0.04317590837074282
0.02068312362774974	0.01336320193607973	0.005173198246515858	-0.05556676871006751
-0.009272938760067056	-0.01461863227758456	-0.05277421952295029	-0.03385628519857691
0.007694091521746135	-0.02756105701238965	-0.05622591557592443	-0.005476414459612177
0.01451567067405044	-0.001835505937049784	0.01445439045929546	-0.001078445844211271
-0.003320025016581464	0.01171375882389981	0.0103435128897168	0.02314313977116964
-0.003630281386219603	0.008511130710753026	-0.03041968941223594	0.02256684818411875
0.01444051456019134	-0.009396266730754216	0.05699978558040553	0.04040125364384875
0.002292190607531107	-0.01597633524140724	0.1013879906800363	0.0125304897915343
0.007748850085549613	-0.003070989946160093	0.004559220715330056	-0.03117774674154525
0.04131523320760402	0.04222854366168057	0.13930341211685	-0.05698067360109964
0.02143890843675885	0.009281336521350705	0.1681414453426973	0.05373087176145837
-0.0001167047709402631	-0.004306093661272441	0.1207637721278268	0.09688153316041551
-0.02223438648369065	-0.02431497864515048	-0.01374560481140024	0.1028664738026203
-0.004713735390510941	-0.00522977863756631	-0.05624778637702327	0.04548517740040186
0.009279836999852064	0.0329827450043317	-0.05354900680602438	0.009982513723186778
0.001988659105978549	0.04759913605036078	-0.07650704024649096	-0.06923833881796525
0.01857664090174218	0.06014129879486229	-0.08373765063814097	-0.05447163731337359
0.01603462146928069	0.02293967310207486	-0.09746853104867444	-0.04717303756166621
0.009034570291548321	0.01652093378721212	-0.09593592320779123	-0.04131801291340169
0.01062286604439558	-0.006160284168123809	-0.0856471916246013	-0.02205834350698953
0.01662199156853498	-0.03403044889561411	0.07027891251870166	0.0326383536374793
-0.006870374120074822	-0.006336395870880026	0.1296517466377675	0.02719261994190241
-0.009808440010700407	0.004808465499320596	0.07008890395021984	0.009837253731553298
0.008268940190258806	0.01037040871969587	-0.141774761724754	-0.02544199484731146
-0.008449746297329863	-0.00736456267877143	-0.1629022417217	-0.03131176086357655
-0.02794240417874552	-0.007462317374416752	-0.1170810262416513	0.0003340120237564848
-0.0359748698503951	0.0264341350564243	-0.1483615487778484	0.01311395427584881
-0.01892543784740266	0.02473595274304915	-0.1004948418109808	0.03036412907602222
-0.01696316039643331	0.0002696540916151497	0.05067460293318429	0.04174990006633467
-0.005458331863030748	-0.0119442810721609	0.2573476731856092	0.01902424198797645
-0.01394589482837051	-0.01102296619232083	0.08901374757156187	0.03983415257261588
-0.0261636922012392	-0.0463651471392124	0.1074514564411184	0.1387189857783934
-0.002619007189533382	-0.04554355521029842	0.08271117816718518	0.1045027595052139
0.02315941493078193	-0.03884031827843309	0.0720669021011925	0.02257796348974362
0.01006321459928038	-0.04384973869669116	0.03151897494767798	-0.06452374279309561
0.001409800712995453	-0.04451791353564032	-0.06677365858473701	-0.1535321339461626
0.01531598792345426	-0.02583617861442074	-0.05207889096692297	-0.165023013960591
-0.002683973578625062	-0.02946126763152268	-0.01422854985137028	-0.08739161062360835
-0.009568024881416283	-0.04870144386426619	0.0169359795952524	-0.0469400411421373
-0.01345624090410326	-0.04907432269165505	-0.01274874719687982	-0.01405533067167368
-3.102899561811365e-05	-0.01990056421415493	0.07875468075953689	0.02361287001673932
0.005564876192490165	-0.007923219530525726	0.08820928345722293	-0.001019471624632729
0.01637367044062124	-0.02213036116477399	0.05921836030393905	0.01651577287174541
0.004563658905250483	0.02032362020523509	-0.03671989520706677	0.02874238032277637
-0.02597519470429907	0.03855168441572974	-0.03260116199264099	0.002670110756343901
-0.04145272442145322	0.03973135755667605	-0.07828372751358011	0.01805582946913158
-0.03720142548888728	0.05576017662240904	-0.09543358007764487	0.0228982757565888
-0.02786674378224114	0.05118157926090078	-0.09841378051460815	0.0145431922742095
-0.009678920614599004	0.04954511223422004	-0.05399068408469463	0.003982586783914863
0.008779780576023908	0.06981268485764386	0.1555535895431899	0.01469093863228289
0.02013647260748123	0.06810443783258883	0.1425060680109919	0.03333237656828809
-0.004798129058955671	0.03167887288737284	0.09192524711224205	0.01541308789303034
-0.006509774607280659	0.001377555461958262	0.1746560877507094	-0.01526389009828256
-0.01954687289761266	-0.004387693997952784	0.0624014099093372	0.01069438975190659
-0.01488160498054083	-0.006356369573193689	0.01938685139657139	0.00393508151256286
-0.002958945315952477	0.004873245488978224	-0.05755136961476869	-0.02917225660165875
-0.0006113240583951236	-0.02394386113516261	-0.07489403200733273	0.006638247845496111
0.03865003875166999	-0.02730583510476215	-0.06864202326629876	0.03268075202017865
0.05019802220203982	-0.01152294773383608	-0.02676561074785893	0.01993991526232499
0.04382724433264153	-0.01660772796455588	-0.1076804310705722	0.003439600222517948
0.01207399392735203	-0.02178321843329901	-0.08180980183327011	-0.02960969272639351
-0.00363062032266799	0.01061949659885488	-0.03984833588845604	-0.05321971669876798
-0.01093674222904776	0.02380991631434807	-0.141412846887863	-0.008803058142683725
-0.005193557370881143	-0.01994885932763581	-0.08948559870971212	0.03039605073062681
-0.02084371157669491	-0.03747920076991143	-0.02990731449556891	0.03066354234760751
-0.006316303831593007	-0.03607553873816303	-0.001505345197132308	0.0307455014767283
0.01324923716360799	-0.05307676981357543	0.02249897362462636	-0.01268880521028779
0.01332454186739387	-0.05050881324003023	-0.07654243202766886	-0.03993085171076007
-0.01872720740228326	-0.04171782319264218	-0.0345646301086524	-0.04835855992062593
-0.0313767934092197	-0.04529070553307943	-0.0868696277001552	-0.05297619118395572
-0.03748444069340588	-0.02414143590003085	-0.07430154624590928	0.0008859297836658343
-0.03335666125018933	0.003313087509747017	0.01712512323983665	0.0342871663913407
-0.008822365474090378	0.005282854913692695	0.2177832836237212	0.02082821036037673
0.005022738215541426	0.01179743134484054	0.1936841177767004	0.01721847887882607
-0.001960990939926586	0.03106122350755005	0.0365933649000556	0.026132233303193
-0.006378415537940696	0.02839495955929628	0.003708900418894733	0.01463188021722
0.02032425924980346	0.01265282382804826	0.01685361403469605	0.01989502788090614
0.03669838883915875	0.001544920533443727	0.01111023488112367	0.02353077732816363
0.03321105129052057	-0.01157610953901106	0.08175787176031656	0.005684235804558249
0.02268490008006589	-0.005342910132054187	-0.001068876609958746	0.001353338768678628
0.006146652806614836	0.007402079487640479	0.01592354252163901	-0.004823779475497086
-0.002801694298614245	-0.0002798794810476846	0.01067430709717017	0.01927230370408371
-0.004291212461521413	-0.01126677686936521	0.03712524470444401	0.05605216996365704
0.0233162626938077	-0.01602090408824362	0.0128347342500285	0.04019698900805597
0.021248062528529	-0.000848993233433879	-0.07402493129305941	0.006362138134070459
0.004582547172688853	-0.01000613904407102	-0.01599888675502686	-0.01685075713997199
0.02006516084294215	-0.003440635510742634	0.01542579986552284	-0.02360295331199444
0.01408671180898019	-0.05665217548872288	-0.0008883786230236563	-0.02997420720507441
0.02288865268100727	-0.0758788310018754	-0.03289039473892421	-0.02237650933846493
0.01008181450742775	-0.06033748577899655	-0.09952033996678925	-0.01015864622843532
0.009074770573625282	0.002580477559068269	-0.1222243917431734	-0.007723513044545318
0.005454724211831272	0.0598631508951853	-0.1036215671167293	-0.008415762837430623
0.007695685158193886	0.08180155799602733	0.1240076218288728	0.02673168150871096
-0.01673421087551907	0.08082129250587598	0.05938050845993111	0.01259717339281884
0.01927403284500736	0.1279176753362633	0.0297629888607173	-0.01544884799049213
0.03101203006195819	0.1606705047770002	0.1607332879210093	0.008851244463076677
0.006159147171308387	0.11438336591116	0.06477538885059876	-0.01343390806008439
-0.009260024723858307	0.07143025276555705	-0.01776957258570629	-0.01490019144733035
-0.01262447644277482	0.02433828154281019	-0.06743509483248232	-0.01933292954529655
-0.003684909652638209	0.01131987071418506	-0.196618634117951	-0.05992607753432987
-0.006217938145751578	0.01608031747912697	-0.2268565704539295	-0.03579926787910311
-0.04130411945134903	-0.006465474966648036	-0.2208629126359574	-0.005609200756636149
-0.0172871934513944	-0.04475130744221995	-0.03205212952474028	0.00372543113460702
-0.02395123758599817	-0.05722184074618746	-0.04321498337212226	0.005642087801156933
-0.01140948610039482	-0.03718645729799928	0.3254318500223077	0.06717074521475674
0.001178539233798213	0.005234539641651727	0.3474037555531312	0.04329389872635369
-0.02160426989368243	-0.01137567373563235	0.1513513471504601	0.02639121379771591
-0.01679231934107538	-0.003004795258148917	0.04138711261060633	0.0210950241694169
0.02541410755670636	0.000344393042510652	0.0239841504116642	0.04705272899787903
0.03967900148104233	-0.01002679713295002	-0.004117835351782381	0.04010595692053309
0.01526496194826706	-0.01577228078069796	-0.01653148098186202	0.03280117171810093
-0.01972865330053141	-0.03520076578162822	-0.009716006764059568	0.01592445093851144
-0.02815427264152639	-0.03010331654256099	0.01860576972484084	0.02159592165627447
-0.00672284776483606	-0.01662722214746682	0.01611861712450982	-0.04680176751649315
0.009769499681050486	-0.01541221847418325	0.009382561435591576	-0.09721013635084259
0.008278436290543515	-0.03842522950319611	-0.005025089102269796	-0.06097178278405522
0.02130615055390316	-0.0102748473496886	-0.05826937948877358	-0.02894905688271714
0.03946179021495441	0.01527390808374461	-0.08427061584990241	-0.02669014699616615
0.0232017327992955	0.01257473632387905	-0.1089090809129731	-0.01052294585752167
0.001905375476807933	-0.004722802000321584	-0.1363448890638422	-0.008257258738727553
0.01759145859408913	-0.01154695949293829	-0.05807332282995153	0.03287703361064116
0.01526887928112016	-0.008249534183864149	0.04603247761409564	0.005345882957927589
0.01284443321852918	0.003671854055939994	0.09149573807305458	-0.01407724412941371
-0.02140238694344218	-0.01399881498306733	0.04397840729008198	0.01321351503482247
-0.04658679631287409	-0.05969219051582649	0.09311366707828742	0.031806036898569
-0.009970113695363027	-0.04306362686144978	0.0209645202378168	0.00987074002540151
0.02192069074523192	0.01539254690863088	-0.05820202432666795	-0.05350836271729623
0.004360398147664878	0.004410585739370434	-0.09916745840142398	-0.1444512486236405
-0.01170370262838454	-0.006119845117448165	-0.08858302054549304	-0.112654899604976
-0.02455348295209656	-0.03511292812373287	-0.02948303664626874	0.02746750461229974
-0.04684091889795908	-0.06291777888713944	-0.02983599962577019	0.07103539630563159
-0.08162799402530907	-0.06891396740279168	-0.1017433395053459	0.06833403452057236
-0.05113663276845205	-0.03340221143401043	-0.1279370989330844	0.02483418905246328
-0.02748046256530981	-0.002013851047059252	-0.1077492291111282	-0.002273664601253997
-0.02248660913150674	0.01881123908996501	0.04969655009736466	-0.03289289422904348
-0.04660337764671818	0.01119379848140672	0.09029086010011499	-0.04609636157699185
-0.0190579486783709	0.01663501301523485	0.1791177270724743	-0.07693365901572194
-0.0203646850232258	0.004004814104645854	0.1358520523882845	-0.06420388196615555
-0.01895798085789325	0.005117662964281263	0.09868851351059239	-0.01614670590596461
-0.008865734223186792	0.01018137450468873	0.03185577659701307	0.04426658764729956
0.0086345080244785	0.01577982310664954	0.01393107855548965	0.04920873982209086
0.0251023853232499	0.003106559049582134	0.04789049576964233	0.03007927136114754
0.0004954941819152447	0.00870803011919884	-0.04081895837137139	-0.00457146276150492
-0.01641627626971241	0.01675014084457848	-0.1478966788885008	-0.03932983764060571
0.00774758236803003	0.02593314743713782	-0.04770952370468284	0.01641510827524255
0.02936221200657781	0.01055130184815842	-0.03114517734685056	0.02010688911236554
0.006345598435982982	-0.01704012123321372	-0.07020543680209888	0.01837656524713745
0.02484857417134129	-0.02951885124845378	0.04904291673302252	0.034643732128582
0.05725272887904864	-0.04993404461986894	0.2225576887651449	0.06098187234694293
0.05088393774251975	-0.03424824112731542	0.2126088599636788	0.04859229484262528
0.02460999346658293	-0.04474840148308849	0.05793542209272994	0.04139598135597909
0.02604726609796343	-0.05050601223559292	0.004055275099199273	0.02275010897785617
0.01349656437426449	-0.01504988732373374	-0.009477950389578341	0.01793685855697122
0.02661678819232836	0.02195986890431922	-0.008036031877968442	0.03986569599805799
0.02744726412014501	0.04348851855770537	-0.006907453002218457	0.04690799688673535
0.03487282973119432	0.08332607473362134	-0.02931438299496738	0.03195034681265252
0.03283185874188243	0.1191755381504955	0.009653651967804011	-0.0107709420885685
0.02659068952716508	0.1088909677351855	0.001837887358894865	-0.06264866502902597
0.01088813889381598	0.07709997428751778	-0.08526170270077883	-0.09759079068025049
0.003024885562542037	0.06468135741494613	-0.1028498167090085	-0.06791324940877531
0.005408585296890612	0.0644474758840603	-0.08674106043282891	-0.0235365324079392
0.009784596009090931	0.05567576836924392	-0.1070296630111399	-0.02841706546217706
-0.0106274167070302	0.0567067185994851	-0.1634125612299912	-0.01545444066605573
-0.02503842227738545	0.03278119786985999	-0.01546695978488389	0.02657264856519262
-0.03303065496959438	0.002147945812750851	0.1059048657830394	0.06661302390706672
-0.03513398266186547	-0.03892533434143501	-0.009569047740643311	0.03299209103287401
-0.05010557652321691	-0.06454404458812046	0.05130264108500657	0.01706708300821394
-0.01999108750475547	-0.06205470887488129	0.1535954417154786	0.03632230002766409
-0.00946673089058832	-0.03375510089254127	0.2638385429812813	0.03620606198865933
-0.006220347808704398	-0.040619528057047	0.1007067761618098	0.0194583333694472
0.001203583370305291	-0.03511676479622702	0.009802923070132731	0.02235402883457702
-0.01749288209061284	-0.0213752532645011	-0.06459727617357139	-0.008193884252294528
-0.003789689330043089	-0.004577349332106512	-0.1026796803521746	-0.01505201770881137
0.01575867195944984	-0.007602180184930793	-0.09390361586594087	0.003492792310949015
0.01981339535596143	-0.01591992072587863	-0.107795903949936	0.02051796671384717
0.0241294932443013	-0.005356524698055392	-0.09640062571496301	0.05466510274049571
0.02145240953429322	-0.009949397900479068	-0.07147009510153698	0.06189434324083192
0.02727507170046879	-0.04505868287931879	0.0483207389316925	0.06044477248954413
0.004637987796370107	-0.05891652469762766	-0.03325425261520299	0.03126100711291914
-0.0005616947072400675	-0.05063244352894291	-0.1021793947732711	-0.04667304513799324
0.0105555402052575	-0.05142001834485545	-0.1156535672702717	-0.1300730730961891
0.003664473478033558	-0.01911820900864264	0.0015191692853941	-0.09565466665547045
0.005109980987681733	0.0003340274110051819	-0.01374601310527573	-0.0145252022701775
-0.008896039817235482	0.01720930089621002	0.07581862530756127	0.0011048001927426
-0.02289524279970326	-0.009253422943500147	0.2085189666190487	0.01362947644140538
-0.03334732431987791	-0.02095918646610044	0.08879762357097626	-0.01104914575258388
-0.007576885488948065	0.008681089896937666	0.02749089257720449	-0.008336571251367103
0.01237572302175429	0.04261265324163595	-0.01958587173032444	-0.02215189926279681
-0.006228687306857271	0.04234218742059617	-0.1022545263022883	-0.0151261185504497
-0.02472992644382405	0.02163310204272855	-0.09406292056531822	-0.01640791936093364
-0.01275383835491781	0.03018349442296229	-0.07889693886804509	-0.02665094766033328
-0.01188266243414213	0.02156701264653452	-0.0512538906518113	-0.02490300550135167
0.0048267778907798	0.03175500966079016	0.2429194514949962	0.01195315695921481
-0.008577353567568407	0.02404150088554223	0.1936708380207665	0.01593904196387526
0.01432474173866602	0.01925748614516619	0.008986237301475184	-0.0182585195508353
0.05288014328273868	0.001617430550301616	-0.03809114562492567	-0.02681871637287495
0.03987896374003478	-0.002376486235760279	-0.05675290876138771	0.01882423206818911
0.02893802024523594	-0.02351689979465896	-0.02138702745044968	0.06040577953609816
0.02719042375401599	-0.04365662526649982	-0.05630274019633719	0.1100245628879978
0.003054721044557582	-0.07647178903865548	-0.1134500257952226	0.08696748289594526
-0.01135092598155879	-0.04642572923797372	-0.1605867392984114	-0.01130018454257463
-0.01664870100376395	0.007673254042092397	-0.02961229161637203	-0.0427641250146069
-0.0293733507174792	0.03956888109593652	0.21213442282579	-0.05291428276528782
-0.02672020922705785	0.03976687011427479	0.23224174658441	-0.02958523801038863
-0.02436705964754667	0.03580863618193312	0.146726900139462	-0.01077731289069764
-0.005869144541030174	0.07293794804782087	0.03357834787215106	-0.01137418421326615
0.009532359164237177	0.08415988092043469	-0.01150077941140024	-0.0006860494165551225
-0.01597514769895356	0.04110426920244814	0.004069114603507742	0.01318651870774352
-0.04004862089084472	0.003437492306212546	-0.03824471073251313	0.0187128846789168
-0.02255515326735695	-0.003045909135029546	-0.04115600247037093	0.001187803927944155
0.00496805129337173	-0.02152943241686976	-0.03764318103467288	-0.03166870283518412
-0.01423299886529673	-0.03010780328177312	-0.01121097809233003	-0.07919082793653172
-0.03584798531469082	-0.03287029303953541	-0.08109971988301001	-0.03048286463732155
-0.006781332752123547	-0.007079814958980142	-0.05700336888137109	-0.01350646051651744
0.0276003337828611	0.01095972014042173	-0.03458240662123139	-0.02547924573182164
0.02861912397673192	-0.0009184999120820344	-0.03406007848861926	-0.01259367046027464
-0.01360185229858958	0.003266517702117062	-0.06293265059558359	-0.01575586953899262
-0.009039035412605791	0.04102125784767455	-0.06472968107223331	-0.003893783337820565
-0.0005148307778015586	0.04432281550952046	-0.07028474334413992	0.02256325406505072
0.01615069864665932	0.007502081055034088	-0.08397767476319337	0.04853917742598508
0.004311750504150186	-0.009440710876210684	-0.07101640066091082	0.07496125318710101
0.004773616377622363	-0.02746155069502231	0.1075985363747445	0.03098783388954778
0.01405775709619763	-0.04643985083931186	0.1287307016914724	-0.00982589913381534
0.02161324763973478	-0.0454375625637606	0.1281586220753634	-0.05082197625244689
0.03445986974373533	-0.03526436475234072	0.04192253430958548	-0.04351999294683637
0.004805010129174706	-0.04576883375841775	-0.01851350780559447	-0.03319537143554908
-0.02552246975650627	-0.06444197565881188	-0.1025190006938067	-0.0322378242914808
-0.01310947787351346	-0.06417510129815923	-0.1337086382167824	-0.04764492384823612
0.004392784593795384	-0.06563305417100543	-0.1213077607635212	-0.06492302509414875
-0.0009167949718662435	-0.06414036624640147	-0.0717659619495121	-0.02995591337554628
-0.006930313630489596	-0.03547900089160439	0.08135466383392601	0.004484582327056568
-0.02355729194044991	-0.005664398699582551	0.2347402800596287	0.01402893865959913
-0.01462141638881559	0.02254641101249992	0.1700199509974644	0.01802013444733248
-0.03125896917706388	-0.002638000201646546	0.07575740734895661	0.02603039527547573
-0.01121009609524917	-0.006743259907095437	0.01760400627813734	0.038778762456798
-0.01216418311454969	0.001319495728811467	0.02318452722134529	0.03977811062486681
0.000982192737820969	0.006572794858338398	0.0252063516782096	0.03149107685911194
0.003981472679004388	0.02150612590940018	0.02598257284507134	0.006245240115116321
-0.01000541133547159	0.02332984823559936	-0.03852579891490028	0.004925458573343354
-0.03709304435476829	-0.01482294061832165	-0.084393685429056	0.0277023519961898
-0.01443877530999943	-0.06756371317331748	-0.1031073866436912	0.04850000629105729
0.02279733342946524	-0.04727712602919037	-0.07128680066760412	0.08594711197949194
0.03151076300782252	-0.005397965208596497	0.01462496252048595	0.1108655973286437
0.01845098675242984	0.01448242408666865	0.1758212698046301	0.08085783584947547
0.0188958136385529	0.06169414707962305	0.1365984131110953	0.03015674211747656
0.02109544695604214	0.08300225231336597	0.05131011128211602	-0.05742021232091161
0.009713450297232685	0.06594001087865525	-0.01349372244373458	-0.04475173170827966
0.006874147635294873	0.02322388915313812	-0.0198190686042234	-0.05479087560450396
-0.004681060003343077	0.03574393658162307	-0.05832365524410036	-0.04591006866594106
-0.01598397685937823	0.01702448524711206	-0.03234982168819903	-0.03289628546941895
-0.02484171277994529	0.01155301230410732	-0.02148607670266527	-0.03885837334739864
-0.02159702119274077	0.008741602438997359	-0.03682266314012173	-0.02751474910368955
0.007324859285715191	0.04734053856889778	-0.0233412804572687	0.01099227763466882
0.0303026560901266	0.07809816324827279	-0.02241841511064586	0.01515222281354864
0.02630799876686303	0.08202914953875204	0.06436640413836267	0.002428079084130296
0.03578769116390793	0.09194794839865043	0.02057850646056082	0.01025152766951446
0.02824091239361384	0.06877056711909348	-0.0197693924170924	0.004042542494491164
0.003467608406861864	0.02222252932388141	-0.0237814588588562	-0.01813168009413852
-0.008537786829229167	-0.002667166592342164	-0.0825260719945958	-0.03283004419829796
-0.003919458080224856	-0.002741789133507077	-0.1280519758514145	-0.02130789868435481
0.02580381469713442	0.02355556336257604	-0.1072592491400724	-0.003067514145072592
0.02475739467573601	0.01661581854273964	-0.05630300723076194	-0.007418165457865022
0.02278002255134451	-0.03244973880986136	0.03969235295818469	0.02923122017141006
0.04548298435125105	-0.04757861315474835	0.03434425406609773	0.01810264170918318
0.02368132765822133	-0.05236685608888425	-0.008552784407899503	0.02277319919242432
0.003268284902263246	-0.04978820941429005	-0.04664765199116225	0.02460353524919366
-0.001278551659362234	-0.04634083503560073	-0.08934222135278069	0.01698136680308228
-0.00539172495317396	-0.04505328110113106	-0.09004639305933772	-0.007315471789242013
-0.006479578231582573	-0.04534723860077704	-0.08805421030066202	-0.02741980470379858
-0.01096746617985385	-0.03522087198929345	-0.04650725565626042	0.02942461455430179
-0.02379373675037349	-0.03091772070056516	0.2588437167886132	0.07754004957858353
-0.01978705722673193	0.0001272605764418914	0.1297598810360713	0.04833551132660684
-0.03313214168849107	0.006555893759840478	0.0003805190490125141	0.02214528116867728
-0.001269285628164507	-0.002148604797506305	-0.03617982346228094	-0.04315999963646372
0.03201987440614648	0.003256146769657907	-0.04681049175315196	-0.07456041463910724
0.02240190736755856	0.004876581032266375	0.1042215612198314	-0.07722342048888262
0.01952812880917528	-0.003309921861512703	0.1616725482336761	-0.06079575371146718
0.009878508411639002	-0.01710079223842862	0.1044799230800309	-0.02359498732469501
-0.01048731522668371	-0.009029266786192685	0.08265161647632309	0.0181995864203207
-0.03139535106064561	-6.120589233165367e-05	0.06051499605152735	0.03826162160624654
-0.03847727874598304	0.005985430132478523	0.01602627727082412	0.01511393192081196
-0.03555242719587882	0.006467604694804381	0.01758835080659103	-0.001670166078899332
-0.02802926810876719	0.002145336682093545	0.05546040121410475	-0.02559319611831271
-0.0176035051569245	-0.01208139294699576	0.09610947062722155	-0.009559066795508737
-0.01700878214773737	-0.02708760658041793	-0.04464073280502892	-0.004845605092282351
-0.03846703372560878	-0.007218842916423983	-0.08561544254174464	0.008125600425782692
0.001050787030539113	0.003122268971332849	-0.04278040497675047	0.01059359964978071
0.004122781098747955	0.01998846897389605	-0.0002414785831637965	0.004429853532596179
-0.003668193262615983	0.02259121978354945	-0.04534029634552932	0.0101465409341493
0.0005797418965263735	0.03118588673841985	-0.04275917009935096	-0.01639968434107976
-0.001500952887751863	0.01933571384070199	-0.04957575534840988	-0.005039223161269857
0.003524839350563224	0.02109080260944298	0.004561168490442476	0.002730298842358865
-0.01556700668085385	-0.006254155633451114	0.00525394474241664	-0.003519966596095063
0.0009365227350673064	-0.01027206396332443	0.06549095417368687	-0.001504183049994383
0.0134468578407334	-0.008307519271537743	0.03338175471321752	0.03413302182808603
0.0133578783911793	-0.01681647022209429	-0.06771099258587145	0.04195889533847169
-0.01891003550740415	-0.04222405439841825	-0.002743010511482246	0.03784946154141892
-0.01491772208594911	-0.03672151394142713	0.007599384656630892	0.04407925724525438
0.004533625887676487	-0.02326618309316512	-0.03378941433731331	0.02463645786061007
0.01589291058937924	-0.0233174503532414	-0.03517465267277301	0.01828184247384248
0.03630497888806821	-0.00836091811355527	-0.06014693636866719	-0.002117658001730372
0.02250434785717007	0.01077919481471928	-0.08134767443159142	-0.03430510159186608
0.006602124993976657	0.03040207448772507	-0.0583904873129688	-0.02685393246830618
0.009919310394957269	0.01562463169595559	-0.01045350294652161	0.06294791377621346
0.00832148220783044	-0.008380900240798309	-0.01897879124387864	0.0468201887144403
0.007172450892144379	-0.05883456310172337	-0.00535558919477381	0.01886429609675602
-0.001798957870613172	-0.04323387868478434	-0.03332459641609269	-0.02477255010060186
0.01377398417433441	-0.02594835529172621	-0.06273317382300618	-0.1060925651879648
-0.005523188104528345	-0.04035252286923597	-0.09080654654893273	-0.135880673535358
-0.02340256235123037	-0.03764085531896995	-0.01438132856389989	-0.08880526580259596
-0.03076158184289337	-0.01695904371632689	0.004917849182993433	-0.02664336738994344
-0.01832095449835246	0.01247005220959337	-0.01163009412050798	0.01414810052211448
0.01885040410574885	0.0539361216192689	0.00199269597321394	0.01584549873793868
0.03575946389953652	0.07739519755975606	0.02722343176999784	-0.008006056333345309
0.02843627958286359	0.09309196889788658	0.02955582194251778	-0.04596095426395137
0.02274814366528021	0.07748245882041456	0.01110679173618971	-0.02733698365795552
-0.004381827804439411	0.07609160816006441	0.005185921893552018	-0.002506901062412845
-0.00410909083869405	0.09382099811106961	-0.02601636998872338	-0.009266926887270349
-0.0004341068531740977	0.07679065911248602	-0.08340331300028607	0.0002463364276637073
0.001071850724804846	0.05971296842707904	-0.03745301836085072	0.001220657152757377
-0.01000847571860974	0.04883273771220783	0.1123504947091843	0.02458383622648962
-0.02378398800131476	0.003277972094800044	0.0125818153488217	0.02668723432591689
-0.01058377196183509	-0.02141789610214969	0.0261468117256897	0.00358251149930944
0.006931025156672201	-0.05032223347932055	0.1733593184476417	0.03483238599846274
0.01602623847064298	-0.05540888942392599	0.05378233692991687	0.05120327137082547
0.004348086168594152	-0.04699194477290566	-0.04757686278162422	0.01785932855991026
-0.001455109302654125	-0.02494261073228371	-0.1339872875278303	0.01222707281935793
0.0007402492440584407	-0.01166617490529897	0.02853729288157363	0.0222259509697506
0.008805427005809158	-0.0103414609287576	0.2064432755026482	0.03340206328699796
-0.01192470006691501	-0.0304743765898434	0.09787991443835667	0.01049078249242272
-0.02964932434565293	-0.05121644082506641	0.09743289232630545	-0.005554843104873042
-0.02677427757083444	-0.05682930960425269	0.01087950962709769	-0.006093099060846565
-0.01437444323384979	-0.06296938054131171	-0.009583670396826591	-0.003703201731566316
-0.009191316767720404	-0.04048981254675704	-0.01547492298821198	0.01765529032749093
-0.005315026734013482	-0.01920119324063271	-0.1055997501849112	0.01586941567133562
-0.03045008482212783	-0.02715926250714919	-0.05564466509699048	0.003410177417783114
-0.03315318542745209	-0.04192372014133423	0.08168665843493193	-0.004832440985510215
-0.02367651899549346	-0.01720551139926538	0.03315651238441882	0.03801307403618787
-0.01306196886764831	0.01195611845611279	-0.02495809726692803	0.03807272508276355
0.01718956793130649	0.02588067972506919	0.1092099822754847	0.002306758640334482
0.04725808759721203	0.02545925480722553	0.1102727246304637	-0.00257481569007244
0.03536129980982934	0.006458264596449725	0.01344351621404266	0.01138584906958853
0.002417491664065758	-0.004905616224753001	-0.0349108680896436	0.01308659968227147
0.006117906832821162	0.00735627136518927	-0.02631177088529217	-0.001261303087247346
0.01384816446207146	0.0239441238655094	-0.02087476696479278	0.00742005444252982
-0.001436497801622953	0.0003218412949858957	-0.02205499037342143	0.0379546359167266
0.009073808484272998	-0.008832398454268267	-0.05464478793245129	0.004171252329907134
0.01076667796984513	-0.02693080729520772	-0.03865424820087153	0.01683594855824598
-0.003579648140437168	-0.01717439519776683	-0.02602088696134298	-0.005643901464103262
-0.00387279673347084	0.01292301307243216	-0.03564690486699702	-0.08629586220461022
-0.008858594823450252	0.01604075302898093	-0.04656267555992333	-0.08195986303580231
0.007188407360906961	0.008109258562387915	-0.03968761199050015	-0.03423690159545621
0.01756396669684068	0.003872043792282889	-0.0482879883267235	-0.03420649319288723
0.009445788285212232	0.01020823598813318	-0.01030677550539866	-0.02580570305198478
0.005096402083070406	0.03532927289610668	0.0004951532502933797	0.01804833721159681
-0.003202220932793753	0.03789643191602286	0.006066242420279148	0.02209168424224764
-0.003018861971389776	0.02847089282220013	-0.0445111944166684	-0.00477038504764561
-0.0234083633882598	-0.005575537576732649	0.04558096719921406	0.02654859533160321
-0.02216027774510635	-0.02998594262857222	0.06499922569980326	0.03223941966955901
-0.009059727748810132	-0.0001749065926741115	-0.0540522734707477	0.007980046645002044
0.007424622325946379	-0.00299234148112584	-0.1025790667022264	0.005153842480384262
0.02623996357593858	-0.021315999423504	-0.09399186255711715	-0.02002352176102104
0.001489782720220154	-0.03603664416511468	-0.09254070021535084	-0.05684288604723178
-0.02044598902730847	-0.02661111950937867	-0.1065819921911461	-0.08871672539734565
0.01252735134345011	0.001152364773194815	-0.05297844777705966	-0.02353879210265041
0.01037354788630443	-0.006257449828556477	-0.04085596607429295	0.08865287425767279
0.003817912418838656	-0.01500431718407591	-0.02935296863475379	0.1000286661550074
0.01197042987851711	0.00291984364089484	0.2591380020950389	0.02650160830848389
0.01415995483560669	0.01898040507412108	0.1868849742168801	-0.05284608867031301
-0.009926805207911917	0.02850629151350081	0.1294404782110151	-0.1432907228948922
0.0009965498292742072	0.04176535276949937	0.07530380225540287	-0.09814913123076753
0.02003678303810636	0.05012408210978279	0.001872556220206493	0.02311946062567604
0.0004102769352981696	0.03131004673026773	-0.0370458354325506	0.06384775946775458
-0.02400572531168209	0.01993851454765268	0.01917511910982218	0.06632098128263079
-0.01037500702665864	-0.001542840027216208	0.02194681240438845	0.02571064342933372
0.02131099609167789	-0.03634238758634608	-0.03195675581432969	0.0003780742947215752
0.003564456688185323	-0.04399075444395418	-0.08905270426947628	-0.03413574784425314
-0.006868265510591211	-0.04709510598785161	-0.07573462122803387	-0.02919600323213591
0.007824706151879832	-0.009673780553669933	-0.05112277139616623	-0.02201401765998182
0.003209296738316313	0.02296991683195062	0.03323324351508913	0.008018880813790628
-0.02472327274016571	0.02527458753262109	0.00396718124629393	0.01323453277089665
-0.01477611622518068	0.03889452629966238	-0.01714895115183437	0.002885367130227436
-0.01572855476482042	0.05292319271315802	0.02623451515791846	0.01236135417212686
-0.003600524906060323	0.05672514398361996	0.02666899598546958	0.01611310178490201
-0.01918377794804825	0.0534715766534823	0.01709566010837393	0.01326105057605829
-0.00641249287548694	0.02853823208218756	0.007547007135511017	0.02425764066474055
0.009387323060216527	-0.005973171489249571	-0.025257870696541	-0.02077926041751794
-0.006271002401023993	-0.01448869038370322	-0.0135638096203104	-0.03144976216544002
0.00241102772200879	0.008627184453433656	0.02740509991036526	-0.01004955377512315
0.01795304152087849	0.02677158793782319	0.01735722017165599	0.003189948014999178
0.02382019122810168	0.01876339725436109	0.02427815944296167	-0.01499830553687439
0.01015508602950444	0.004682277613888168	0.01435746433547081	-0.01770974128372557
-0.003784761443868824	-0.01402284305711506	0.03988504199267566	0.006994744429621864
0.01772773925419342	0.007777268232863313	0.03412786256628805	0.05818249600473889
0.02403791308342265	0.008047633957045634	0.03241080707069395	0.06818752161790227
2.773652092134378e-05	-0.009476928684253245	0.002632438948912455	0.07289449315326414
-0.001090715848772695	-0.007218056930625047	0.0006476633090008221	0.06319514306281319
0.01692287599736676	-0.02684814646419366	-0.04295483881005373	0.04354647071186338
0.02010198767209094	-0.0521663441971104	-0.08824059101848125	-0.003490258333127533
0.008787781868868434	-0.05443668825849524	-0.1280262900741359	-0.06514870338093087
0.0193358088877369	-0.01943447292142178	-0.1081212368998438	-0.05362096311604163
0.009742737901757614	0.01396860191221265	-0.09304293820301764	-0.04446008949454142
-0.01763327748212631	0.01506388311338455	-0.01667125453151133	-0.02713707536673845
-0.0173771051740903	0.01776361712727292	0.2197165685942371	0.02344011930453001
-0.01211887591064331	0.001629466024175313	0.1443407091026113	0.02074901694319034
-0.01244677949701515	-0.02840628831635396	-0.01504838020122219	0.004823164551677832
-0.02336664255813998	-0.04909228271715257	-0.081165716354372	-0.003068807168790513
-0.002947144179483626	-0.03318543257679168	-0.09816377763404109	-0.01677812770393779
-0.004975228437792522	-0.04789059697433925	0.05034257593589359	-0.01214169659339757
-0.01091158224996663	-0.04598147522843811	0.1547113229987986	0.004312569552080756
-0.007810135265512409	-0.05372497828657295	0.1072244591479921	0.01114719975387418
-0.01691528084938182	-0.05221410925860163	0.07474856597821954	0.02355353346557783
-8.278818123641041e-05	-0.04824912065422877	0.1451595168340054	0.01153706869355496
-0.001684064162658625	-0.03421482054817101	0.1453758789921379	0.01920523671500261
-0.004283576054179395	-0.003409795522043354	-0.02809902009651826	0.01765833027132237
0.004109491060010046	0.008103972988862623	-0.1044646196192812	0.00501942164863666
0.007871568611364257	0.009392770255128621	-0.1218277862924408	0.05048791896864266
0.001333096930308395	0.02743810188128788	-0.06535785883477468	0.06454488355738962
-0.004097214906019933	0.03274971611724126	-0.04845754022903283	0.05442512188166663
-0.01502261467976025	0.02499299795021742	-0.01066307962108159	0.03079060678217327
-0.0126486176966139	0.002874897800975891	0.0362784660258	-0.005635563801436486
-0.01942974355882068	-0.02947902771441111	-0.0201157515966197	-0.08251574740398017
-0.0153654364161774	-0.03966913700498565	-0.07833741084005366	-0.03397246404831159
-0.0007230515576954049	-0.02478374634487814	-0.05583178287111281	-0.01601843658880173
0.003677339359126139	0.002822684912041679	-0.04445516745584409	-0.03013163813737224
-0.0007848427193600323	0.01383419054680054	0.07533629202368722	-0.04643502608983722
0.006001956671849452	0.01477103873804632	0.01024282021106765	-0.04463258241526621
0.02241094264673687	0.03155701604805591	-0.09387359874205557	-0.0357840521955099
0.01601584749931495	0.04322401887665878	-0.0635151998846714	-0.01542165217092112
0.03450554455829605	0.08953599135177029	-0.07572144863381539	-0.008681559191779788
0.02260258963558919	0.1010795230976432	-0.1065868884392418	-0.01140935732838293
0.01417381822473509	0.07732234261541815	-0.06166848410492047	-0.008712940106919097
0.01506783661306911	0.03507777902195586	0.1533097258118924	-0.0001363390838094463
-0.0001173030947519383	-0.006989029871001519	0.1489188836101674	0.005929390291589398
-0.004520954254413319	-0.007206407385206328	0.07214672641517877	0.02260815530160316
-0.0124034429678675	-0.00551959703539272	0.07800149197579098	0.04478996723365113
-0.004991927547933223	0.002572544698958368	0.07150709028728902	0.1128909803360058
-0.009434021693797895	-0.0155180154704386	0.05868938665169988	0.09774209435750235
-0.003710772074167439	-0.02347138034745174	0.01689382499029883	0.04828089465549359
0.008740404673425073	0.006460260502331752	-0.04873514494183565	-0.0435133743479735
0.00287057648598958	0.0257740753779234	-0.04128176297816932	-0.1499401599244409
0.004746708237186355	0.01785062783515243	-0.0418975221860992	-0.1535183628193599
0.001097445872076707	0.003199188385663814	-0.05575719466896185	-0.1199369662012864
-0.0003790369999522534	-0.02751660292588815	-0.1039245585775363	-0.06286499056835856
0.002309424475659206	-0.06604356692309803	-0.07890417795151436	-0.03957455689637879
0.01054871138072502	-0.04090193519088676	-0.07241408972130309	-0.01582693543980097
-0.006868701121814157	-0.02701689286087208	-0.09960098439808814	0.0004246018578973805
-0.02417153824022758	-0.02333699097967535	-0.07824612183903217	0.01403473854379378
-0.01158496312491112	-0.02071099861461084	0.03044126753845334	0.02614096602219865
0.001000328729344029	-0.005549077581544955	0.1085942954079414	0.02314328290302444
0.00646394536442577	-0.002864844459821559	0.09680349025877004	0.04293642198931689
0.004684083063536052	0.006945642626317314	0.1192115724166817	0.05350460120876255
-0.003965747622153875	0.0273073372750993	0.04154461544738317	0.03533911753460836
-0.01859080156014631	0.05048876960962322	0.01640151381521271	0.002350730316593588
-0.0104703234334756	0.04375686414691433	-0.04444518041856136	-0.003503629765483055
0.001487043581886493	0.03679893446281885	-0.06335977818408207	0.007949856986936191
0.00213455504820272	0.02851499608611024	-0.05838336297244317	0.00504774908468522
0.01418814762580439	0.01534567456764864	0.06476520236435584	0.01426976124412099
0.000648093230389194	0.01976061819495479	0.102543895393985	0.01533785427207438
0.00111309047767707	-0.001652997415484073	0.05566117172469755	0.0003535297469404427
0.004830275739455969	-0.01612098504162833	0.01783619435990989	-0.03633678674034432
0.003306373844466158	-0.01760062619248516	-0.01410757741159282	0.008257393411787202
-0.02352379812229853	-0.02757004427347515	-0.02419781950002388	0.04045652852980126
-0.02698960008453496	-0.03979822805341324	-0.03035280544655711	0.03519019443737301
0.0008280951210893058	-0.02882825988147825	-0.05064416001527544	0.04428940018957413
0.002083544910409393	-0.02146993035646646	-0.02244696359621477	0.05553906696797836
0.004092219383231406	-0.03317786777264385	-0.01054014841587668	0.01948161674000781
-0.006090129137555752	-0.03530652476541218	-0.01049277480803544	0.005615436882815773
-0.001178753518587563	-0.0293235309364941	0.01315050945858107	-0.02184865364319612
-0.01103327776587356	-0.02399309782916251	0.01931883002063385	-0.06393561285744979
-0.01903831073081515	-0.01587771753944359	0.01861052531496872	-0.04210239002360549
-0.01456373046078613	-0.01163692669462735	-0.005059406010977869	-0.01534798073898455
-0.003866636176895856	-0.004512091849307904	-0.05125678403808542	-0.03377915471656275
0.01074945107103397	0.00375053290288733	-0.1116216933646499	-0.04923430967885427
0.001529156833080324	0.01097146863986884	-0.1515447292579055	-0.04180556686986458
-0.02593617307651237	-0.01485855659157157	-0.09784696147220026	-0.0209724152007824
-0.02572726998274167	-0.02279268193897398	-0.03176357874659275	-0.005348313621393389
-0.006691389751721504	-0.01149561932907838	0.06136880095388993	0.0004846213062845718
0.001155268591362911	0.000554107732295977	0.2946432378145111	0.03353932908795682
0.01574670156189726	0.01092455127038698	0.1679448589042819	0.06924646250218276
0.01179864732521627	0.005759291530218019	0.03770468093696878	0.08666810870244747
0.009890439767394206	0.000205784435490364	0.01334669763455567	0.06776443957435893
0.02227460366565417	0.01622353590652474	0.01250939446256059	0.03911599500135732
0.02564318481384795	0.03319399268373999	0.02938320507908052	0.01161456894640156
0.006253780928112011	0.02900674263997887	0.01293994957076243	0.001176466055878942
-0.009168594328149688	0.02933783378460318	-0.02976546455642356	-0.01341961464942969
-0.0009836732504241474	0.04451892310923908	-0.03726173907702767	-0.01237632653466872
0.005315265311910441	0.03729721141224875	0.04661454786804448	-0.008474625779793309
0.0002665105393857171	0.02598399263446593	0.04826127755037391	0.005638505821407522
-0.01000313180229955	0.01452441854097562	0.0006921470634101167	-0.01176027146384905
-0.01199806132993817	0.04384834703669745	-0.02095076467071775	-0.03440592663968985
0.01967345138531834	0.05471249335903774	-0.03977473923350978	-0.03033890845127588
0.03460028412407097	0.01485581551300203	-0.06986404936408414	-0.0006385533256573121
0.0378822391339606	-0.003546535047730289	-0.004187448377336972	0.02264252838794628
0.01550354247964618	-0.0109046737677804	0.05754636761974182	0.02832907884396593
0.006858076634330977	0.0007410720015184053	0.007388791091126062	0.02132719925009858
0.02197182889092691	0.008423922886267289	-0.0005145989176690746	0.02666145661192874
0.03218767607645277	-0.02383708461971061	0.006799505805450326	0.04654071135437407
0.0229463620729552	-0.03166346719065189	-0.04455428259035815	0.05236964583867115
0.02111138808037366	-0.003389325928055436	-0.04376789446153357	0.0361368292554224
0.01015244030238107	-0.009508279271062438	-0.04579498933474289	-0.01314606861564714
-0.009947401412328647	0.002218647492552478	-0.03033671042794677	-0.03164021788013247
-0.03238529695393283	-0.001816175492708704	0.01524031698086464	-0.05664072426025744
-0.03066739899100065	-0.02311904860558408	0.06319840971064486	-0.08691681126993651
-0.02107212493768092	-0.02333918920813427	0.05522083369935492	-0.0754099073088579
-0.01740798571336205	-0.003094461644580612	-0.04442452369246165	-0.01645679178918464
-0.01944936484142511	-0.004753115946005432	-0.07552086324254137	-0.004861593273869635
-0.003546033482120737	0.007773883078561288	-0.01531610589318003	5.695082079871748e-05
-0.002633546868675529	0.004187067691914409	0.02787894721485451	0.009702827574617687
-0.001241902974432059	-0.003929270207058588	-0.005133785062547357	-0.001769311542484861
0.01181068010799056	0.001192784479023209	-0.02658459290411535	-0.009422101011854745
0.001637355385344193	-0.0005191838306286484	-0.04053421750080272	-0.01960287348003805
0.01251738942923791	0.02300718434768513	-0.05883380430820698	-0.008174334083211708
-0.008144814952830705	-0.003224472904957957	-0.05347275146431772	-0.01327791214271929
-0.01788997243592809	-0.03798837432550213	-0.03269087199297851	-0.01296876394836785
-0.01053223212093788	-0.04589529553223838	-0.007297521037919881	0.003164881430766162
-0.03924481718938011	-0.04206363558726507	0.01510250940053832	0.06527703317094426
-0.01232737575558066	-0.01400887167581079	0.06282298665578408	0.1157878599385549
-0.01373377753906129	-0.03060842532496273	-0.07066840212302454	0.117465373713116
0.001562765532309465	-0.03618978523823448	-0.06437701521039099	0.06430304119654404
-0.01391754295526025	-0.02723606466420812	0.1659269026075712	-0.07048806930640583
-0.01724945935811167	-0.01702683995500424	0.04105158554904593	-0.1017294782849445
0.01111781491660768	-0.01012671800922269	-0.01993684525527787	-0.07197976342722853
0.01788025930135752	0.004921489610662208	-0.06214552039990786	-0.1214305476712302
0.0116909626750815	-0.01820526788063063	0.0173319383449838	-0.08361648702501735
0.01365665332872847	0.004004595242335957	0.08836989378351912	-0.01267486671894461
-0.01986993492692567	-0.02487705743577969	0.06658637775621429	0.02379374985552496
0.00553406312318768	0.0223055455014029	0.0611546649248292	0.02990933139459548
0.02330238472131814	0.03862282118445235	0.04554516609051119	0.02226224279636968
0.0307290817005868	0.01878806200314883	0.03239908143399461	0.02575256457225737
0.02172843920455849	0.04404466501665849	0.01632553846467952	0.004020453194931236
0.01116524311501361	0.04558673084561461	0.01596177073471416	0.001072839248795716
0.003758969694655725	0.04994556950030013	-1.630931425663045e-05	0.002753779543853235
-0.006710183818604347	0.05731739914856272	-0.0278638778134818	-0.007287679926206215
-0.009207400094929909	0.02411545042290104	-0.03472955556344877	-0.02689111543555864
0.006939092800088717	0.02320737848297196	-0.03550957066583948	-0.0262135382428632
-0.003909646277254128	0.01009920121328835	-0.05936591532052157	0.002452675905583301
-0.01401573971438633	-0.0181324574071151	-0.03433564897174314	0.02402166225992073
-0.008391192896948127	-0.0297214258507189	-0.04491349754318392	-0.004496634570532728
0.0006652782366850925	-0.01420691088634782	-0.06054848202704573	0.02828385903680127
-0.002780345798730813	-0.005230696270546711	-0.0283941263310037	0.05942357227668602
0.01249051221311719	0.01000928178154192	0.04977676990022301	0.05247886032212631
0.01874116101983251	0.006544967892048928	-0.005498824495109912	0.03465617791874968
-0.008767382222004603	-0.01069188863746513	-0.05595096585839981	-0.01028250423290892
-0.01688461782819307	-0.01411703211559315	-0.04827450069565035	-0.06495997771818152
-0.01314216907734706	-0.01373967024068973	0.006238701278489095	-0.04223510920101774
0.01254583121830575	0.004772022254303818	0.03526868973690003	-0.01954994150740622
0.02381950050132554	0.0147412336740749	0.02979648757130402	-0.02324170785009992
0.01224968553217062	0.02783526993470229	0.05588948622323625	-0.008211887584856154
0.003117346430231745	0.0223890831923549	0.06303897148078276	0.00305728212475211
-0.002057346452573724	0.01869240825680885	0.07410019184248291	0.01561093622496526
-0.009142473479618092	0.009306198465579544	-0.009031367807609559	0.01613639508149087
-0.0023554820783809	0.0241117725576163	-0.02553769809266321	0.01193440503500517
-0.002796852012995223	0.00966334947368915	-0.01960817796753318	0.0126456803596727
-0.01476603098128198	-0.008072715869556069	-0.0243016095629153	0.003526834198935026
-0.01776698519991908	-0.0133108570341616	-0.033069759665769	-0.002707650354635471
-0.006766555019900707	-0.008542758532716447	0.1108013741224222	0.02160176021544719
-0.01022756475590602	-0.004088022876420357	0.09166918160735299	0.04051684989803013
-0.01422920354553826	-0.02314506648213897	0.004138944858570551	-0.02803997725847708
-0.01056083489261877	-0.03539442592034089	-0.0215396914419905	-0.03350454246161594
0.004198983167241462	-0.05128162807621245	-0.08542822292810966	-0.01560782181299359
-0.000749815786463814	-0.06815211137759827	-0.1552915464460896	-0.02090589738607532
0.005743861989354023	-0.02519396041189878	-0.2175945393098455	-0.0124340441821325
-0.01050952756948207	-0.009413668917883592	-0.161619042348622	0.02562354350667338
-0.02237328132348272	-0.02722521082147315	-0.1473750061643662	0.01826878258189498
-0.02641829698754782	-0.0436469508251264	0.1642809345153165	0.003573048888937288
-0.01718460024506456	-0.01640973490997528	0.2795428446107818	-0.0002107224511409781
-0.0001983778462236806	0.008048232373910117	0.267562149616259	0.0195383758117087
0.002800015583649726	0.007906465695227535	0.08487335858709015	0.05059905280250629
0.003478428716830396	-0.01579312826133617	0.0337858095531488	0.1007529733277214
0.004441072091841864	-0.03000682889802474	0.07305901827860842	0.1056516395853744
0.02867838445580489	0.01396772793637089	0.04247461145461946	0.07337372778034883
0.03196982631572814	0.04189883902645481	0.01467758649162854	0.02377007524397632
0.03370716925325706	0.03329329752506872	-0.003054911945751321	-0.02752076381305885
0.03077904562988537	0.02555023197486532	-0.01560099421940194	-0.0891975571102772
0.01718051774712145	0.006914731141226245	-0.05176942807258976	-0.05399419600006356
0.02987595134619724	0.003059686207109666	-0.06674028652269479	-0.03133038402746122
0.02206569318491636	0.0002158445196296368	-0.0446240445452088	-0.006698777221465011
0.005623361041769994	-0.01599219608799694	-0.03808630487693608	0.0406011495592702
-0.02378064074516471	-0.02891065045833273	-0.03406052760407849	0.04311774407339493
-0.02117740492863242	0.009053417544415656	-0.004581446597369844	-0.004094221491664403
-0.04092024947298281	0.01109171497895826	0.009627812655376211	-0.04394120349638097
-0.04366440402520382	0.01600098801890435	0.02667035610093407	-0.1106466604725388
-0.03341085983809409	0.01572990672080119	0.01071430703556466	-0.08727146301897584
-0.03818409892913452	0.0251881991416052	-0.0163423273781699	-0.07342041563371908
-0.009498055700966103	0.01952140994121125	-0.08871567720355139	-0.01890736150802206
-0.004375386198565326	0.02311337325034659	-0.09686439976974853	0.01524425753580399
-0.001185297962785633	0.02682767675651527	0.003969914885920797	0.02577265473549832
-0.002067424617180477	0.01073595533228443	0.00245927358384353	0.0017152536230843
0.001934690244571624	0.01169386160482236	0.02707911208947688	-0.01107878015395498
0.01249324514260177	0.01589739546223733	-0.008131074414328426	-0.0005536794182296987
0.02402188941762506	0.03323878348996712	-0.03009675203170636	0.01890573525077548
0.0150962833301126	0.02714387906677321	-0.03349951058290542	0.02652098157954692
0.002243304374005674	0.01800124125467955	-0.04338366439827116	0.01728059558510562
0.01300584248369985	0.0224045689757286	-0.05528107190012022	-0.01437972160352288
0.01607201074796026	0.02485323187206141	-0.02002670703089526	-0.03566272458781202
0.01935593212486262	0.02219642323178832	0.07235808621201754	-0.01775520798547508
-0.006169381039676339	-0.009479668560500079	0.002764147836001381	-0.01016438880029376
-0.004229041403140611	-0.01260217061340539	0.04649214656493893	0.005256523438607742
-0.003210381675072772	-0.01814771727567548	0.01817131446835997	0.0001397672539280838
0.002534351368766327	-0.01738207067147721	0.009441851654071222	0.008176428163126789
0.01265358543572071	-0.01774804763565582	0.1502128609322224	0.02145481909332468
0.006294682322911872	-0.03017641354575982	0.04368554289192126	0.05212145354608437
0.004548571660108925	-0.02806136314308081	-0.02000978074445586	0.04895438057135675
-0.00913700883466402	-0.04082699243647475	-0.0289301565898335	0.05380393242029279
0.005408650605717449	-0.02330447079341848	-0.02851640259799484	0.06217053335678412
-0.009935674130477752	-0.01969153344171505	-0.03175476987380862	0.03308792667376362
-0.02853674800538812	-0.02471193208390764	-0.04529801243000547	-0.04555968078298726
0.008783846575401388	-0.0150211599230075	-0.06026615016810889	-0.0691210294766892
0.01770863085840516	-0.0001048932854531544	-0.02832659418332253	-0.06155500743266405
0.02219299669284593	-0.001041366787935673	0.01523180578619211	-0.03461539502632593
0.01694963776734794	-0.003615974150953691	0.01083354636637262	-0.01053308416160882
0.0143059678707007	-0.009201244321640817	0.02352285115403477	0.01715969576171582
0.004341129624074857	-0.04130021128532656	0.018957414709558	0.01018219050863507
-0.009827252127896846	-0.04554982673668466	0.1025581399553628	0.01257309520692349
-0.009662049348750781	-0.03487177996563571	0.05949784277448227	0.02429960567333581
-0.0009914019892096856	-0.01588493106253259	0.01428858077424605	0.005994620390024885
0.01116955426379957	0.0001292582454996357	-0.0220404543120236	-0.006992111307790159
0.01032364991054066	0.01356613347413559	-0.05910251754407186	0.02228696198923008
-0.005984057368590644	0.01233487695461875	-0.009216544767669838	0.0657402649006221
-0.010101168176491	0.0007744098980552258	-0.008590163420895117	0.1039409093203251
-0.007464759096014901	-0.01633231882812719	-0.03741075013777473	0.06632443737150824
-0.0116323833776642	0.0196136777895356	-0.06028253205598196	-0.04670702091469644
-0.02471593986668732	0.01745668960761539	0.05460725711508718	-0.1006230966690089
-0.0004433015145026037	0.01462041024226311	0.003212495484759023	-0.1004923460259114
0.01609737539854164	0.01082913531576257	-0.0522860289623967	-0.09191722343961312
0.006890085727479594	-0.01674044902398384	-0.0625765582113072	-0.07351010545908544
-0.001566831774616506	-0.001660203505613148	-0.07023428182651199	-0.01997030303247829
-0.00280835563521269	0.0217353644495933	-0.05991713826013407	-0.002246898927934275
0.01213759587748251	0.0283317021010219	-0.02476846527414246	0.01150541488233374
0.01373763100277691	0.02248518031335905	-0.01538728728830786	0.008711932803935537
0.01327796040155896	0.04140444359377784	0.1176721343232033	0.02652388373461621
0.010683527616224	0.06771467042637846	0.1346579648837926	0.01913342992465903
0.02124559238845448	0.07522742970795705	0.2315149563186314	0.01279947859387577
0.02340589017208328	0.0606971792219474	0.09663891656542878	-0.003304511497204467
0.01246255411358217	0.04797226460208594	0.0001786112344987711	0.0070833123744802
-0.0007992654089610174	0.02738920002967235	-0.001771802277356748	0.008899441494785417
-0.002803925302450153	0.01331632163062526	-0.04407984142812347	-0.005614425322710067
-0.01654343450570616	0.004052452908783604	-0.06234901843399989	-0.006955505220836824
-0.00613174918067459	0.006716534026413488	-0.09248800769931471	-0.001802491096735528
-0.01494947606473684	-0.02718281147398651	-0.07626713845517173	0.000998950467623629
-0.03081906980657853	-0.05475094992190247	0.008932968881798224	0.0299144506007368
-0.02163873046905019	-0.04044236387783629	0.07560882818685449	0.05811587255847281
-0.02197967286007599	-0.02957527290923253	0.008074590251648374	0.05042619554997413
-0.01568049818145534	-0.03705450852524719	-0.04516848017735713	0.02472157313132331
-0.0008319406785324264	-0.0117398944977875	-0.03368612755088924	-0.01138449527252926
-0.003720482440610793	0.01268983321480846	-0.0008173721127901446	-0.03002835057712801
-0.004080576253726948	0.01897874172745123	-0.02032438963733805	-0.02493999771840985
0.00343153570299823	0.009930759749598653	-0.01048751217839855	-0.01999193793835551
0.01218784325404707	0.006072659300103179	0.0194212923199391	-0.02031746838570611
0.006893377002872104	0.01290461732281113	0.1347985841476135	0.008366342819696473
-0.002307629714065079	0.004599477121923379	-0.00233680223200219	0.006303008674774702
0.002868855767566419	-0.03981451947008206	-0.03976847162039294	0.007669859053426375
0.003628841160023937	-0.04988705695476676	-0.04227656294860287	0.01192565031942166
0.005871360765167469	-0.04237562001345511	-0.06865893634537429	0.02067305263717221
-0.002594186345545479	-0.03105833488684085	-0.08526604749250206	0.06131132170754035
-0.003856624019945365	-0.02451601000922602	-0.05642093352553895	0.04661422584150755
-0.001764059064542594	-0.03111080338958385	-0.03655582324127214	0.004556921130315406
0.001998609134259864	-0.01587859846310985	-0.01166461294921918	-0.009913874721760096
0.008825053242750991	0.003515279032717004	0.02889457306622897	-0.05579051639831774
0.0157701531254637	0.004525316157362447	0.1832256342521295	-0.05897785213834423
0.002354033048686075	0.0008159616935585628	0.05563576972491674	-0.02503432139209572
-0.01309650395544614	0.004450192370633623	0.02562384362343956	-0.01958273432799996
-0.006335933857788749	0.01836671153963806	-0.01750600198886801	-0.02473459101688038
-0.003448529864209949	0.01313227974857052	-0.02441559745135689	-0.0277658614726242
-0.00763628867671937	0.01549850888595046	-0.08417805401606394	-0.01360675050180055
-0.01902706955271015	0.0145898537654397	-0.1084315200178155	-0.007253626262577575
0.005753117792273907	0.03071701853949694	-0.1252319233173825	-0.006958177208887816
0.01177859153614978	0.01863322447183914	-0.0516738007664101	0.006598745169526607
0.02423306221643043	-0.01308309993872567	-0.02517209647365263	-0.002196482983022047
0.004325796005741883	-0.01561836617070978	0.1274928381021022	0.0308560770434772
-0.01251739890514741	0.02105781472313265	0.2418753069132348	0.07224723296538722
-0.01371588397307395	0.03850044232886413	0.1989759961864441	0.05551031144659673
-0.005624191004963674	0.04252252454283108	0.102450802329812	0.04599977775991379
-0.003609904483971191	0.02406622442184122	0.05799360867531128	0.03356504517327657
-0.01164615307410499	-0.008998069913805416	-0.0005931188891484344	0.0235754357355929
-0.007879150256901026	-0.03663367053425128	-0.02814421852176641	0.0141397984952569
-0.01598852208877095	-0.04986368477694859	-0.0349636815096572	0.002911346685409717
-0.02592440607078279	-0.06794642993431496	-0.04677023170741824	-0.001697453856778552
-0.01639077192896144	-0.07253651518027879	-0.04855248337588423	-0.0133193265465106
-0.009711564496979207	-0.05429054618901968	-0.06663074393438979	-0.02938016218271453
-0.01313096128100626	-0.05314381191897838	-0.0534283730942376	-0.02935618048084167
-0.009773722554653521	-0.03693579273398163	-0.09146237003237105	-0.03605983137675101
0.01276727691202964	-0.009934394832340475	-0.09304582342023988	-0.01864073002413113
0.02000439094453213	0.01112436336638028	-0.03919077423464314	0.04251092934120433
0.008450656603454162	0.007603010818866739	0.03900373667699418	0.04570340596773859
-0.004370064063206627	0.001611879322499495	0.04228372250798701	0.01864220314691975
-0.01377357299472422	0.001510064059493944	0.01462638389072023	-0.0164341463300099
0.003571988329387946	0.01899292877237736	-0.02817384000463274	-0.09855948449557006
0.0254850014260736	0.03631335134394172	-0.04461262401847854	-0.1104276507173093
0.02599688689957919	0.0574053005907107	-0.005832232897355061	-0.03120875914089096
0.02898525487735702	0.04678305210252317	0.07339989523055307	-0.04017167465945589
0.01117043528086982	0.03828189754833373	0.0616925584451916	-0.03583631336903261
0.02726395852022323	0.06502416487893013	-0.03745050581758571	-0.008571746947574529
0.01895272006764712	0.06294737118681551	-0.02454147217573364	-0.005405365241266171
0.01083344466834374	0.04081268281804817	0.02405941347855808	0.02050634115607573
0.002767924112948617	0.02956857631775116	0.04069168215888319	0.04162022555397964
-0.03775835346545581	-0.00426459264529515	-0.02371416064591639	0.06159961200854517
-0.03184939726776934	-0.02140224660327101	-0.07448990104814814	0.08233087920190217
-0.01654417928133161	-0.01840361617255714	-0.02287181398326387	0.1126732859968119
-0.006958558866197574	-0.02295811967969409	0.01217478510295429	0.09283323605955754
-0.008325372781029818	-0.01560238024796139	0.0387048075209269	0.04970847097697719
0.009061689818625068	-0.01229277129409395	0.07430889854212427	-0.03936178822923155
0.001632707929699891	-0.0227407734500519	-0.02574125587774002	-0.08928632579378325
-0.0100810594196131	-0.04017420073926761	-0.1079079147379198	-0.1340355840801154
0.03054029267357348	-0.02509649129055373	-0.08514885240756173	-0.07970521764854838
0.02789610626225928	-0.01651033896710476	-0.05162088294061732	-0.007714578521603836
0.02613174385588375	0.01195876053678496	0.04320714642799434	-0.0001583102865033007
0.0207439506989528	0.0295796353378093	0.130971744744876	0.003567874334137025
0.004431799260646821	0.01453714474843286	0.02416106995544028	0.001795585572510949
-0.004853675661197851	0.01827219493091449	-0.04457731095441739	0.01489885533418195
-0.007453145436598571	0.00293089632373628	-0.06991859200301978	-0.005519718474812678
-0.001325240623542329	-0.01899059076254864	-0.06469252500812958	-0.01103044319468491
-0.01403569489175048	-0.01241619540084782	-0.08456053257231748	-0.01579623852591629
-0.0191689994595163	-0.01248885395703882	-0.0356407669153397	-0.0154475430679375
-0.03306762573579896	-0.0205447235453772	0.1163218316682888	-0.01239904224855243
-0.02918814109836777	-0.03729776517785227	0.1036328451002677	-0.0006569215114164465
-0.02272686581154685	-0.04122765386504993	0.01851262509863355	0.008882306486168541
-0.02252074919546123	-0.05287775400820529	-0.03899525327455877	0.01279013732808933
-0.003011641661822361	-0.04387625896411601	-0.1318066967498258	0.009975873995779488
0.00560271801639037	0.01444671293859934	-0.03980210624871116	0.04182302453491914
0.02501621572805812	0.02619274226120374	0.3649749304286626	0.06112217444527346
0.02895313476172733	0.01374464480386774	0.3083003484875173	0.04712998290727182
0.04691824319884961	0.02226429149622868	0.05833124046532993	0.01282330219399849
0.04037088578017745	0.03539961043481682	0.06931877314290256	0.01114172886033872
0.03075287070797446	0.04113595928249203	-0.02151290806232737	-0.002111409516479142
0.02838155066175139	0.08368770994731801	0.008556580132127537	0.01655775242347108
0.01040017954520081	0.07529197714042592	0.001763016310348146	0.01483029716777052
-0.004726455220670672	0.06317466622342327	-0.04069064054667723	0.01151537548733851
0.002518269208082967	0.07124371217719408	-0.07748814440686032	-0.01251653259268234
-0.005083964752213133	0.07714839021665619	-0.08115799729137116	-0.05210462321765517
-0.02312971490774167	0.04128978270073255	-0.08158288554166396	-0.07938193947393606
-0.03421665740154731	-0.002239876311159439	-0.09088666968950765	-0.009862896248476156
-0.03120571720769633	-0.02243210739505952	-0.0554365914267614	0.09165557769595527
-0.01626034718019091	-0.0309582468965522	0.009478578194043746	0.1644025018750421
-0.008738278815183359	-0.01752428857173662	0.07616765624543166	0.1449803944912094
-0.01231654395261712	-0.04260918402015023	0.0001209708722758458	0.03401499967851639
-0.01600815089861346	-0.05497257971568443	-0.01019130430734211	-0.0500212716181934
-0.02437247417765183	-0.06050127241789679	-0.05627271888070079	-0.1923029829043864
-0.009851761344826973	-0.04164721550338811	-0.05706625200408788	-0.173538527530294
-0.005936583332899556	-0.03971877682121729	0.0847556683842796	-0.08521949188468247
-0.03072616873742232	-0.07274637401365791	0.01328217565225615	-0.02166682508378047
-0.01347621372581695	-0.04956382219742148	-0.0274136527969975	0.007730920359830439
0.007871832291694013	-0.01412134483195185	-0.03566136404499539	-0.003083585478643512
0.005517428425991791	0.003489569038718916	-0.0437334637615616	-0.01412413776199767
0.00045854873036147	0.02900200844846215	-0.0131106569693025	-0.01222878855703299
0.01322724273493348	0.03463177501466388	-0.0296679552929062	0.02948945985220393
0.01944168271832518	0.02713930148603935	-0.04126439724242802	-0.003012384928042668
0.04410631120108792	0.02983571188190045	-0.01422741915977483	-0.02641245431295638
0.03355593587633169	0.02320745201731867	0.009565075078545151	-0.007999522949452366
0.0202212646090706	0.005303662633715332	-0.02485944087045937	0.003198677284809114
0.01341988134321818	-0.002212588816892637	-0.04861984145803186	-0.00787956304437624
0.00326361848084627	0.002084523135463796	-0.0226046044541873	0.005835772138049113
-0.001564582346583107	0.006619301388349114	-0.01064834786115726	0.02468679158596201
-0.004294958897683962	-0.01824021287759718	-0.03747741030859197	0.01662830682510704
0.0009432600674464834	-0.03900403133653586	-0.005888011394354017	0.01497239416825729
0.006118193163013874	-0.02503814565580781	-0.04116814413793762	0.0186812761583283
0.001813940899646683	-0.02618828976500218	-0.05588899819423541	0.01188521612100896
-0.01603289818425209	-0.01767921932270842	-0.05562241737913574	-0.002881859061500436
-0.01248800502557431	-0.006385449208178994	-0.07177568850994223	-0.01343750656402542
-0.01422990304311159	-0.001211122545876478	-0.02490023853084617	-0.01987672219463445
-0.003383293556771847	0.004663845277654188	0.09672315316421716	-0.004070422267210702
0.00400461793879006	0.009881822385335847	0.0622032751709839	0.01808371109751086
-0.00529931661768716	0.006625284237720478	0.008868856991949087	0.01952635394738754
-0.007361876682422574	0.008144762980368156	0.06620189003198267	0.02856386319590034
-0.006994961735680402	0.01084563941770615	0.2756280631759696	0.04648218374991013
0.0150834885395273	0.00901851319674442	0.1502302668975709	0.04604602697871366
0.01759064469718098	-0.01083010449465316	0.0248789917810455	0.02678348866003789
0.01510050422946911	-0.02163746812424261	-0.003104723871605276	0.02205823846733722
0.004862890671116302	-0.01712170377822835	-0.02943905136674839	0.01172268198123522
0.004695776993708971	-0.01882068399795874	-0.05173493082829005	0.0001817417809899489
0.0122117283497503	-0.01569893326914936	-0.03358966137328767	0.002600118214668311
-0.004252179130120788	-0.04592331277392511	0.00129888322044673	0.02499584041213175
0.013495243366447	-0.0236901598545543	-0.01451205265079844	0.03957860260463664
0.000358625675926962	-0.01069459582413339	-0.03799147573406051	0.001708175671108147
-0.01238164050162285	-0.003313052046554052	-0.03595470693826265	-0.0469283903453811
-0.006425619195540131	0.02237523615002398	-0.07463531671554631	-0.1070694859391279
-0.00770067409662119	0.05373654972184375	-0.1352261950534005	-0.1029628979642028
-0.03001698127995793	0.04998823760181841	-0.08164974447489341	-0.02896115318684922
-0.01535936773046581	0.02980334660658437	0.02627798696976376	0.01373362082370494
-0.03124410394760448	0.01215580397756433	0.2084245643252955	0.02558900026157062
-0.02691631066078807	0.0136513426421119	0.1704020542530037	0.0475814814940882
-0.008521814037068256	-0.008217198322818173	0.05942847218204334	0.06925787145388307
-0.01530328607141858	-0.02917923796764114	-0.01197850419768335	0.04587968180715858
0.01316223010929916	-0.01426470319135248	-0.06573076076968898	0.001184868262498242
0.02223121438551444	-0.009332842481076452	-0.007442728756102292	-0.006096334161398312
0.01188459900025557	-0.001168500920507061	-0.001023249701467174	-0.002148282933078207
0.01507300984930467	0.01056155521974298	-0.001450601935049979	-0.005328364153450766
0.02667617628284695	0.01978202010355093	0.01735156028944125	0.008298853747371783
0.01958908652130719	0.02234882248194523	0.002016959099455976	-0.01089453591382171
0.01446619372583106	0.01607468905048599	-0.02451017498901527	0.001659188198645389
0.004135724922811845	0.002451987483445696	-0.03609114273166523	-0.02816380601845521
-0.009124082811355166	-0.001039005847704972	0.07816840744759983	-0.02823304818960568
-0.02978255464184024	-0.01955486047100421	0.1645054640271868	0.003379982900037104
-0.02530194410730454	-0.02980556720390188	0.07549395271800675	0.0007386945350163732
0.003566123784148662	0.05621903739864187	-0.0336074031719663	-0.02510455147186479
-0.01132202224718255	0.03044707742595861	-0.102347749149732	-0.04026184685620306
-0.02808991470730485	0.01603612760192347	-0.1162663928626362	-0.003690323635285651
-0.01330051775089629	-0.009074409479406336	-0.09538166978331994	0.03845979019015551
0.0007885750757745766	-0.02857019080017239	-0.08218531193517734	0.04875257751620042
0.02327695556688776	-0.01824029200141469	0.01067872215373685	0.02608464550733676
0.01281485377908038	-0.01035225583627628	0.1398855247195234	0.02668908183515245
-0.004471250570220135	-0.03057480587224926	0.09244653115575512	-0.02936402194226734
-0.007228676817613897	-0.01314627952952239	-0.004073076270285188	-0.05040256003621928
0.003761356235343087	0.002729134175039276	-0.02743003797924707	-0.03371173703531203
0.006478681001483764	0.01577634256000482	0.0124620893949009	-0.009962355078985635
-0.01217182927755909	0.01880736445350611	0.001387946437549168	0.001516199358630852
-0.01724252476525658	0.01195840269802475	-0.01940884791592691	0.008138417744788726
0.005052905324593245	0.03237604920559602	-0.0336097082954172	0.03444797682345655
0.01907046549710517	0.03117683914203403	-0.04274924680572832	0.03905381105110881
0.01552710396750368	0.01781131932392164	-0.05531879855040806	-0.01640956392109689
0.002754132790206832	-0.01678815651271994	-0.05082680906652042	-0.04885922324812215
0.0003879230235501201	-0.02491706274544711	-0.02901184804210741	-0.0249108257405346
-0.00637656940581048	-0.04972226383642507	-0.04994028651994196	-0.03302960409074557
0.00152979179269452	-0.04676578251871211	0.04989655409953414	-0.02692200823731954
-0.01222903295594529	-0.0548012070340129	0.06521782163850584	-0.03107119813248735
-0.00420020113969061	-0.02417259504414111	0.01900531369168163	-0.02695825831791399
0.005758454068241017	0.002956410451135454	0.05803597009637487	-0.002963037541331761
0.01252191907037899	0.03019420499984739	0.03901574984586466	-0.007008308772919337
-0.007731315015736165	0.04035969757882694	-0.02775776851484046	-0.01493193649542533
-0.007473633805434269	0.04560849979752386	-0.100048665472721	3.466362436520566e-05
-0.009376311889883514	0.03973801125535935	-0.1309748583298904	0.02448841158029729
0.003264034973460391	0.02987142680681447	-0.134104630471304	0.007025142822969444
-0.009394335826139097	0.02465655498175286	-0.06770969186417174	0.01419898754412469
-0.02064584802026982	-0.002740430318011378	0.1122358763758137	0.006714212558426459
-0.02572837351477471	-0.01259853993168103	0.003970397706734631	0.006441104985727409
-0.01297678662998056	-0.002721470817454066	-0.008957390006645929	0.03731674901815206
0.03202208805272589	0.01202159403533608	0.08535454578343317	0.05825984051905823
0.0456596573068236	0.04201261576831259	0.1922191435169119	0.06013773318699876
0.04730860469934628	0.03113902277638711	0.141112883904445	0.04976619279025246
0.02378327788556123	-0.005729680364500861	0.0557055776332003	0.03473082834601099
0.02101826276035921	-0.003090589861238645	0.0201097438666433	0.0482320379145224
0.02080675090887422	0.004704579987276011	-0.02426572194407859	0.02755688532202463
0.01083951982985721	-0.001842745309421523	-0.08814644650098824	0.02525396388569473
-0.004947760930647668	-0.0234718239890986	-0.09456066528255323	0.01180220077837124
-0.003987065840847811	-0.05695904638007489	-0.1069024184475683	-0.08475911378594546
0.008947953495768431	-0.02560851057262528	-0.1363338381463357	-0.09712023314092631
0.001022079352716458	-0.01300527788693976	-0.04000121514859126	-0.07042798424925814
-0.005017895651186263	0.01647809598364803	0.05971127623662847	-0.04545283126737824
-0.01527086959111825	0.0201315809695075	0.2532360977032503	-0.02674030984744719
0.001664187264393596	0.01379980055282367	0.1128053218935745	-0.0185778533498737
-0.01111702090859339	0.01019460140216595	0.006801468609503982	0.03907653257742201
-0.01090273241511092	0.003901532510079051	-0.06217061839148685	0.07575753456397193
-0.007542279570570673	0.01899944943126221	-0.1014579466038637	0.07040055435744186
-0.007850969098029008	0.01111823537690846	-0.02350650372519764	0.04002401876658943
0.002035584595242348	-0.007836591118263372	0.03966747590600968	-0.01668461637957738
0.004721945859117986	-0.008159536448123993	0.05078136396411267	-0.08048880205828207
0.002331783586251727	0.00139946288174582	0.1195792414024897	-0.08663945717039788
-0.002721473431228874	0.0188775893406527	0.06933838223386823	-0.05194511879810517
0.009832801299233952	0.02985552310553908	0.01166191326297196	-0.03483642785981179
0.0115393936693303	0.02547793718246544	-0.03239258566653819	-0.002625467273115184
-0.01980935273956312	0.009590624080484098	-0.0631130144347183	0.005468340552535466
-0.002086900860136196	0.02297711515904644	-0.03345680060340948	0.003406489195142985
-0.001537462012517605	0.008149212949663477	-0.0370204426164179	0.01786508864014544
-0.007991500768873745	-0.01443932764392337	-0.05093570480505105	0.02660079862121323
-0.01078508260381006	-0.04783938130719536	-0.07891176702622844	0.04672853401706017
0.005645995170980764	-0.04908234749111848	-0.09885781161205075	0.06007409635153712
0.02081279070397222	-0.05845239707143785	-0.04440169482546785	0.05665016778229027
0.001194858453660954	-0.06196299776800084	0.03836430109660445	0.01962868925166266
-0.006886099633605863	-0.06203707510107996	0.02645578012852299	-0.03725380607367761
0.01573670087437779	-0.04341315640995754	0.001123591910070114	-0.06925150298788006
0.01536397105933669	-0.01347827999815189	-0.02390143244278066	-0.06235802403191978
0.01281121019044137	0.01051875488816384	-0.01165527488909345	-0.01961364300621357
0.01591518107278079	0.01857979478648752	-0.04876126537982681	0.01784008730507317
-0.02624719808854259	0.008164353117216349	-0.03865036743535481	0.03680076438001492
-0.02543677728336772	0.01732808572400943	-0.0447317383138813	0.04141013719265119
-0.02540995585028802	-0.008021244692451437	-0.06796000547954893	0.01749270682955873
-0.007176510185545523	-0.04984617866009292	-0.0333119811161331	-0.03216283343832472
-0.0004229825292606823	-0.0737474570740496	0.06939333948149652	-0.005964072514077818
0.01727596400080881	-0.05943035703255984	-0.06152373272527988	-0.01095977148910748
-0.003585003440516445	-0.0235582424505751	-0.09641692355910277	0.009451147857775521
-0.03145582453043339	0.01175571261218924	-0.07417674415414052	0.01983543662310612
-0.0161157034777457	0.03204593463349994	-0.01862561716431108	0.004090573166589034
-0.0231458079360509	0.03868089490081268	0.0802252861838445	-0.005258879406596769
-0.02560821860505997	0.05428690448923769	0.06947694219134161	-0.004427377871349684
-0.0180013957575528	0.06290470715316006	0.02351688691502271	-0.01524824778562587
-0.01421941655502684	0.06031013926590863	0.06028351200883973	-0.001335014273369527
-0.01193173213584886	0.05585069269048029	-0.01090350806498147	-0.009247285786096212
-0.01061749355483727	0.02020851755361839	-0.0518234089787367	-0.009138239640430906
-0.02411868827716717	-0.02560534619577292	0.01522995466648848	0.003969444805008765
-0.02947475446990839	-0.03931279705062776	0.05625862619989717	0.01030077560020697
-0.01572815395181304	-0.02778216007379241	0.1773048448491394	0.007819982210321371
0.0004221425929855291	-0.02198111815191853	0.1308951506900915	0.02873373450090318
0.006612943266271862	-0.01415895459901071	0.08720280774159661	0.04727081900091442
0.02071673541589195	0.008442476572619928	0.04834939757754943	0.07231208981940997
0.02782524294030197	0.03726117759323017	-0.004986307928315547	0.07188803262586994
0.02446467414052709	0.03656194682382964	0.0005323887643242035	0.08553449249326582
0.02059589712113175	0.02849760756701696	-0.002407212936714735	0.05986397464943587
0.02963776562664363	0.009551401166413469	-0.01903338805253534	0.01056736341965493
0.01625536466554204	-0.0132603807419943	-0.04910932821762019	-0.04591031676477132
-0.003866403155147857	-0.04435614795673357	-0.03412033974666457	-0.08505451954652862
-0.02202649579090088	-0.03590841992448984	0.01077979374681246	-0.06419032185976274
-0.02149132404458828	-0.01545706855775766	0.03270496012138954	-0.04022603278914114
0.02990681390387583	-0.009889786232080972	0.002902679759226918	-0.007237012260898282
0.04109252766846768	-0.01096087598324904	0.03235691093658204	-0.00891038130175156
0.02380100511860302	-0.01731762540485403	0.002991960097904612	-0.09569160304879595
0.02328153434438435	-0.01797742425168778	0.01861965268644064	-0.1258185740410077
0.0182094620571969	-0.001114366055816554	0.08159672555788686	-0.0599528310721498
-0.005439980748659288	0.01805144249921858	0.08121538684211932	0.000819853204094242
0.008019719218537166	0.03645896372602706	0.005786132954420308	0.03083168638248763
0.01443840209612285	0.0502784156593853	-0.02369821201956539	0.03911904465239689
0.01060106465055844	0.0462362671237313	-0.05962760955663781	0.03602073461273374
-0.006101238579623276	0.0145468627299843	-0.01497830260993308	0.01713144952651764
-0.01700185190808803	0.01255461813449907	0.02373605283811542	0.0006120062699250599
0.01103329691650956	0.02061313807663083	-0.03489959596884015	-0.01402992967438021
0.00574689409533425	0.02879870804531295	-0.09847419256197586	-0.01369168816084272
-0.006030018953049389	0.04194451137972033	0.009174910662177425	0.009600018732457413
-0.02642358093739765	0.008259321097419012	0.03887212863711054	0.02380804342712734
-0.04124154036631808	-0.01310021840844775	-0.001358382712448669	-0.001881170666011086
-0.02908052909295429	-0.01565500497103564	0.0333949210578461	-0.0198098094465413
0.01777743720788809	-0.02673229471559805	0.144115279522488	0.00961650224119121
0.03797068205386134	-0.01571863493257601	0.03256031879284093	0.009154422795218737
0.01766685494003012	-0.00622060593151201	-0.01849468672338143	0.02490486297113083
-0.0001569135921353319	-0.00420851507741478	-0.04140419492102628	0.03276570102354909
0.008483629078818486	0.02087449563597574	-0.05862151246186861	0.04536136237260187
0.01133259757957416	0.008604834904712722	-0.03968221384152869	0.0641165432410144
0.006709321052144676	-0.001927241340161982	-0.02846079136190315	0.03272145703719685
0.004294527063770044	-0.02969274076744807	-0.05222487891478696	-0.04210702011484104
0.01882903945082946	-0.02066833191088764	-0.1507180769265549	-0.1171074508737788
0.004110493216780015	-0.02856829407558379	-0.1820882770036988	-0.1205970570302095
-0.002328157263115021	-0.04642562836656912	-0.1317173451013031	-0.03521485625629749
-0.002267020215172996	0.0008272769283400624	-0.07986352949858508	0.0211450190268366
0.01565313154402681	0.02322027176478619	0.04016724216920899	0.0429576751062812
-0.001976693964924168	0.02026704909977139	0.2472352647633502	0.04423865813087365
-0.01722548496628473	0.03411687003563704	0.2570747457578751	0.05572905520386642
-0.02718036788588293	0.01582374230220596	0.1397840800215709	0.06261798805722216
-0.004201063721136674	0.005377154590779593	-0.006089512784381807	0.001290102820354122
-0.002050357626994866	0.008071196181253067	-0.04195315154113562	-0.02706985243303113
-0.008043329614980825	-0.002444862703567104	-0.09985623159937311	-0.03622682067304712
-0.02749789109696954	-0.025241592301285	-0.10131072566296	-0.05951665520059511
-0.01268504638690501	-0.01263878845271443	-0.05611801798957595	-0.03879004294636584
-0.007109516532086678	0.02028851016470429	0.05051980302531385	-0.01899840314580076
0.006647693928849571	0.02706664764726471	-0.01606424643150383	-0.01659080063582257
0.007740885824091288	0.02625343521646152	-0.06053682462937084	0.01465590210142211
-0.005297474382406903	0.01537217186568759	0.07819869983122563	0.02585410937051512
-0.01125619094784001	0.008896553609281774	0.07026075239140478	0.02352551785849311
-0.02461972213378557	-0.007011451338017333	0.1270638230697163	0.05060463102798848
-0.01254639754585875	-0.01033477403005392	0.0407293179219682	0.04129806682920509
0.01085891132201217	-0.006632607032111032	-0.02165431092536385	0.007919892559172179
0.03456954104072286	0.03329172052572545	-0.01026990868085052	0.00469267631282348
0.02345217517027316	0.03875137507359173	-0.04875767389966699	-0.02625879028686642
0.01602136285878811	0.03337628156030403	-0.02806717538293748	0.0174612516272868
-0.006754419697615889	0.01312303248691936	-0.1078593836837283	0.03504640119185978
-0.01440546001117592	-0.001825569611530134	-0.006016991215547472	0.04150612820579297
0.001353581042347402	-0.01695799464923278	0.07709972761934651	0.04169767179453816
-0.009393127723799874	-0.03451036544772123	-0.0242500172307477	-0.01181112826206871
-0.01066424492577259	-0.06117770785680288	-0.07379361867846659	-0.03939917264820022
-0.002604163249752517	-0.05985560345096653	-0.06155438652040876	0.02954413896666612
-0.002820309010070895	-0.07151272745177964	-0.05577737437764423	0.02349488271414105
-0.00874828600207897	-0.06457374058770202	0.2016078122635228	0.01358307717430408
-0.001301244772439445	-0.05488833915596151	0.1771987383159908	-0.02761528351115856
0.007357458658859861	-0.0503724519980509	-0.04045913678261594	-0.04816847419218218
-0.01212657985645284	-0.02576862162648866	-0.1697048847767051	-0.04387589075764903
-0.02859613251342645	-0.007694051093361499	-0.180366857973952	0.009366385650197612
-0.03143479729579186	-0.004711558204686844	-0.08460789638364177	0.03875156021517816
-0.04038893594552662	-0.001559786393019339	-0.07051109369540218	0.03022731550420704
-0.02710215751412273	0.01436645306299512	-0.06777156205819658	0.02505677482710501
-0.007498806184133808	0.02268055724934902	0.1166935657343243	0.0331676103378727
-0.007958993507552633	0.02196329899514522	0.03086533707274634	-0.03089114582485885
-0.01026581773540323	0.0002394558096652291	-0.06481239582324297	-0.01355414605897735
0.004695507932740681	-0.009244015688365612	0.03820833001461901	-0.02024393133940695
0.01565936011122596	-0.01102261250237111	0.0823090696987874	-0.09970428573919042
0.005601762174506652	0.0001451843672555347	-0.04930550044796657	-0.1211893274804012
0.005163794535120174	0.02058299015724525	-0.05807078879452891	-0.07723340158463074
0.01279053292088369	-0.005001815045903328	0.04188212138588357	-0.01749745938444401
0.00975480064711003	-0.03241615808876279	0.02925017667346951	0.04650120182585896
0.0158474179458873	-0.03774696646575259	-0.01549360399422127	0.1211982343698283
0.01718647558651283	-0.01976829339887525	-0.004879213180199362	0.08695901147334943
0.01270744221937031	-0.003322820922640097	0.02819162456749211	0.04999051186532812
-0.0100871696335615	0.001678091578787137	0.0173978796619277	-0.00767869483711256
-0.0008660644425482315	0.04633979444980285	0.09196294996639748	-0.04928971866806126
0.009971806542770145	0.06644562483033532	0.001030671741110887	-0.07776525969143862
0.02852772002247444	0.09831026407574636	-0.06879360998596283	-0.05874104633068832
0.03371866506327896	0.08486225503327281	0.04271424497357953	-0.03900030340395853
0.009323795784250528	0.05056415901789651	-0.00286320916002568	-0.01806470846827282
0.01106019166819069	0.03725035868247646	-0.01876593006623076	0.006738050096043924
0.009487712940736139	0.01646787963304039	-0.01670638591316649	0.02430295335934542
0.01495966846707116	0.01332579975678023	-0.004507567812473026	0.01832369654685861
0.03055180445986792	0.003754169650133876	0.02462743905371783	0.006071175538227186
0.02808468383358378	-0.004197945243849455	-0.0006307294042200469	0.02880586099999562
0.002372345184544428	-0.008307689133367293	-0.03851337452343408	0.005333589596476146
-0.02286709593166955	-0.00858079240762355	-0.05545856150590583	-0.01074380353090196
-0.01924536588757329	-0.0003934523382379724	-0.07024149797201093	-0.01108514880910572
-0.004402097279951517	0.003169060559024646	-0.08136178076905698	-0.0336324511555545
0.01699900193260735	0.004761717852955127	0.0006409545183803111	-0.0367854710164324
0.02203184471567888	-0.001797174915636844	0.04455469261225266	-0.0104455584955825
0.01628886798516687	0.01580419743372054	0.09621250506113251	0.01442158685839896
0.01742155459818602	0.007581938957931578	0.1359235368967312	0.003949914504198113
0.02163707561611971	0.007492557803830115	0.1144549065640127	0.03576511413441804
0.01896052685581341	-0.008354056861762113	0.0345940908306346	0.03944801525001965
0.0290418497631356	0.01964783730535935	0.01797660132952472	0.05659678010547801
0.01047543743814032	0.02377667810753736	-0.02764953541045503	0.04093533288239864
0.0009319876364360004	0.01543220233450652	-0.0254415171955132	0.0425041835231604
0.02750815218552502	0.001171139343726331	0.01019438869933908	0.04940403595332249
0.03383708217379376	-0.01919658213385256	0.03894051229440089	0.09120145271008576
0.03627757643057623	-0.02870081938444754	0.03179197191679812	0.0776375925718001
0.01250272245854839	-0.02514191839710176	0.00363773472931025	-0.0187049593228406
-0.00195453352088065	-0.01359367945560669	-0.05387996340011339	-0.02721667293988918
-0.05213568422797206	-0.03256065120375545	-0.0709754356672265	-0.02094268997768053
-0.08647729575007078	-0.03370634824571693	-0.1028746418292395	-0.03894619942111551
-0.069833877946244	-0.03385541676204989	-0.08230499103456373	-0.01868052076785392
-0.03868441829084363	-0.04798226275286872	-0.08892904775429439	-0.0234482531006515
-0.02814196357832109	-0.0319972338071992	0.2210446156398698	-0.0523002804171672
-0.007976970396206845	-0.01745175072774177	0.2940587472422235	-0.04921887637044618
-0.05613230734113408	-0.01473127628870306	0.1034304669380668	-0.07178277366664088
-0.08726377942520563	-0.01382105967463794	-0.01562053451280807	-0.06091280361159103
-0.1180699926789497	-0.02086350345647085	-0.1483631760636021	-0.03234480729707007
-0.07936969140590157	-0.02517411696624258	-0.08610809789818348	0.01371775379804642
-0.03023628017564805	-0.02330634780979383	-0.0255738998784707	0.03708276750246127
0.02510571291475306	-0.005399586146025715	-0.007621058415926106	0.02014814372964968
0.03717675724145064	0.02807803583129398	0.004383363919220828	-0.04530648923973126
0.01824445438075124	0.03591777672062076	0.1064494087570671	-0.05350374469846784
0.007863376148249014	0.01481693339326056	0.2130750087515096	0.004986400057603687
-0.002040891277037262	0.01248951425016143	0.02156981821617534	0.01027512571163064
0.000108018645197126	0.009605904734812407	-0.08696313294791685	0.01171670644554778
0.02197960243948142	0.02634368935365206	-0.05206159807860077	0.00487841090086218
0.04857266058557052	0.02863586478366498	0.02666598073577138	-0.001736388504957933
0.05346117720032502	0.01637039720237848	-0.05331111986675543	-0.0115899465925053
0.04370330339281418	-0.00708060734291976	0.04306340662799477	0.03205262791162866
0.03965942453693058	-0.02571987788935759	0.07995830301499962	0.0408849484328092
0.03224529849686687	-0.05651952819541293	-0.07083839628133166	0.07216035251328934
0.02554256676753442	-0.08605804082170346	-0.04715829111814485	0.1776701085710548
0.03303454102394288	-0.05577553275541863	-0.03694305285572482	0.1755611539936066
0.02000542441515711	-0.005573657143606818	-0.0293766620914649	0.1260574762222764
0.002981473877342032	0.03277305714134699	-0.03466937387914458	0.02600112081609037
0.02139954606077124	0.05844390059232542	0.0113807102677581	-0.1060305532290088
0.03299303698273245	0.05659661817424846	0.07238987230285057	-0.1708456589533817
-0.01729819614932515	0.01972463976324152	0.03742333496208234	-0.1719824085128284
-0.04636934415632096	0.05847628571087058	-0.02238070120724681	-0.07791757449084215
-0.04209626945029984	0.08755868465801359	-0.0768135047529887	-0.06217546146012178
-0.03445750944735915	0.0640475805742068	-0.1062197570723725	-0.03393141162307791
-0.0171513728685877	0.08297935733632121	-0.1051554103969498	-0.02126365905196134
-0.01958949224730883	0.05356691121904524	-0.06707747503296385	-0.006969523038702861
-0.02031600373113516	0.03355035612712631	-0.08120657468495548	-0.02394021035694162
-0.002108284791217767	0.01117118909251666	-0.07463984316052361	-0.05254196589974421
0.006909586994439687	0.01656962423874644	-0.0878112915136214	-0.04164433388350798
0.01186287303635402	0.02671672036861945	-0.08061223180469086	-0.01503934501259348
0.01314034652473269	0.02476001543877834	0.07539993947333778	0.07060482418313944
0.05447579769662603	0.00946362533948303	0.0948083075224344	0.05307425754126046
0.04536335233114006	0.001082448187516378	0.03430222370965086	0.04424510804999197
0.03998766427804034	-0.008911521879954898	-0.04822311295416681	-0.001491211543558743
0.03562128448886528	-0.02443165263783484	-0.0451295189385874	-0.01324315551665672
0.02660007272760976	-0.03284575570671237	0.01777852036554946	0.0003216005250700189
0.0215059375493247	-0.04211877515042289	0.05178882043792957	0.03047197111983914
0.006385777268936021	-0.03189395684771925	-0.03840197335182535	0.01639259902319935
4.712287182934852e-05	-0.04816776678599431	0.2022042578517702	0.05043854752892522
0.01149934841193509	-0.05653250498068319	0.2118227093417105	0.1088178392492435
0.03428232374707252	-0.06046730804156976	0.07652498791268227	0.1969414680538192
0.03439733751227345	-0.07238437406803645	-0.01258276426030729	0.157153633047191
0.01010178681717167	-0.09425590360881998	-0.05685147056859788	0.06912069248915351
-0.02456649309827224	-0.1034433341687245	-0.05428137275156639	-0.06634543647419651
-0.02258948511041715	-0.06533924774185831	-0.04076805059942119	-0.2233661488194776
-0.01680784344783064	-0.048982627159072	0.0787762772537666	-0.1819041548090896
-0.04979138845718539	-0.05482954167314855	-0.04931518783327054	-0.1034754214510656
-0.06193352631713476	-0.07492589981757432	-0.116188999406885	-0.06028637794777391
-0.05711488980879674	-0.05106966949715239	-0.1571214132132377	-0.0123779103268983
-0.07233859723281615	-0.05138663950762241	-0.2020333414315253	-0.00718988881596352
-0.04542547278923748	-0.0474032135187791	0.001889441107926446	0.002122606449232055
-0.01740706020879249	-0.02813354690725631	0.2347498469022894	-0.01938873349829661
-0.04160232176595026	0.004469898744523076	0.2819521588720975	0.01718090564885554
-0.008191071492287386	0.0139763434998303	0.08083206018801378	0.02541909551594257
0.0007217512979802132	0.04464202213079009	0.02835853500626304	0.006374495164660335
0.005482430942764171	0.07926239420435671	-0.02131152670687466	-0.009426800098187324
0.008868480865356524	0.1031367947745704	-0.04630146377281733	-0.0131460811600239
0.005599306833297808	0.1003733594868245	-0.09377264602364095	-0.01906016210456176
-0.02812638997496374	0.0827986534167755	-0.0754029504543242	0.02494103665283103
-0.02909562880059672	0.08452889453283598	0.0733518931114823	0.06323143075819036
-0.002482905517382449	0.07952820443214312	0.06316414195683313	0.06796202920299679
0.01836798819017669	0.06348817896034301	0.009651867858883587	0.02432735164728582
0.03865323023099015	0.03450470411323529	-0.05456422251780169	0.006832305478818325
0.01111069993804694	0.02420731658420999	-0.1168902508025493	-0.01407173200992684
0.05041442839765806	0.03239583356944658	-0.08128652776244251	-0.03939998267079136
0.05958555240530881	0.02642634143796888	-0.05709761423826658	-0.02917451765175203
0.03217060885733397	-0.005339756368627791	-0.08373777855121678	-0.03594324561083349
0.009281302706254485	0.01157313944936297	-0.06898933031443444	-0.0005415038327186544
0.0149443919203224	-0.009568725543692235	0.1770778383085804	0.0488639284884906
0.01190040661392396	-0.02080932477013665	0.1755342686255697	0.06493307813805735
-0.01471551485802586	-0.03952470646239449	0.04448363174301657	0.03660878499889827
0.01459883308510794	-0.04668446360683302	0.04117822127345209	0.0583196717526861
0.02035582665552022	-0.02098141257829842	0.06228097715045339	0.03718349119883723
-0.002661909299971901	-0.04566823927351438	0.06336520803644749	0.08463550317506374
0.001235059872490198	-0.0415512838489208	0.04656919324982624	0.07510489855686812
0.01446510012055039	-0.03339355039894394	-0.008352304352411815	0.06682163112044232
0.01825567219359121	0.02447233194994492	-0.03843577718870025	0.06129823321043563
0.01239660511517158	-0.004905748179325794	-0.07913772525903714	0.08303105562621407
-0.01138435512287009	-0.07096956483106953	-0.09107649550569451	0.06111200528013499
-0.04686448219517483	-0.06241271477916101	-0.09757514694013783	0.003224353874824156
-0.03763784236897262	0.02373526805578756	-0.08881040550477232	-0.07302465751232487
-0.01059550186379208	0.07891421353496113	-0.09032605404543693	-0.1195491427839161
-0.03024726290112928	0.08333184930800955	0.1065856848288111	-0.1963610721042689
-0.03968245409880062	0.080308464706556	0.1311467082558915	-0.1948822270257495
-0.03983695921966518	0.07157771499149533	0.008779440091686814	-0.1492311213651596
-0.007318237108295473	0.07795407346822725	-0.06153838751777561	-0.0637734622376815
0.03019809633418359	0.06332984698686396	-0.06560897474922409	-0.03986911328679688
0.02829867677066371	0.05233081544159172	-0.07108655513123835	-0.04529530599492518
0.007895258438374169	0.03268892892892278	-0.0795276218804236	-0.05649361099201509
-0.0008940245939988046	0.004035938685281778	0.08614424244604019	-0.02789099636281224
-0.001724597976208125	-0.01559778330686366	0.2967342226735222	-0.008475000554695222
0.03750016043372922	0.004063715842089622	0.2257587333412932	-0.01601691007638794
0.06471528763232644	0.03153129841174207	0.083988484523894	0.003863144885964836
0.04428524683920889	0.004368656813526057	-0.06671521657820961	0.07110425624297059
0.02453464546325593	-0.02337454498299836	-0.1675650695573909	0.01822245763013996
0.006640092770067509	-0.01496303603156062	-0.1694276611342422	0.01305150578387325
0.01098075224310149	-0.02045874366321468	-0.1479827904899599	0.01686656687451657
-0.00445392653232972	-0.0534098344904397	-0.1196029860945744	0.0208311337728399
-0.01937740480824674	-0.06050339126985011	-0.09276375142764587	0.0408771050854272
-0.02688027283167099	-0.03249286439664731	-0.07574549928615709	0.05410960766291344
-0.0603482354688684	-0.03514397729243663	0.01543698406808617	0.1080508674159285
-0.06857530251661488	-0.05381489370937158	0.1260168682356606	0.1045944945085873
-0.03333197408491845	-0.0516279613769958	0.1511866943646265	0.08716835911286133
-0.04655190662678759	-0.05680908770967293	0.1204736010883476	0.09990492317010817
-0.02024231296330708	-0.04495032207153202	0.07663799079572606	0.001319751895051832
-0.007148275066930809	-0.04729835714766473	0.04804506948187447	-0.05259603020076514
0.009347885692963739	-0.1073562843117756	0.01039988265148543	-0.01796004475153852
0.005816031877526305	-0.1443965663315433	-0.01454994548609625	-0.01937645629395188
-0.01869537129481452	-0.1485580203147944	0.05919448531642985	-0.06023208097874357
-0.01008229240405092	-0.07878528861015535	-0.08940537581516801	-0.06273609084624841
-0.01875141564794413	-0.05199349217464872	-0.1057695433325887	-0.07461715392454008
-0.02868634756794602	-0.02196116233843897	-0.05259331526631458	-0.08712597538596775
-0.02252081598395829	0.02628799511703037	-0.0356686055224941	-0.04450446117381052
-0.02470463634588261	0.07445899379451934	0.04343781595855419	-0.01025816967053376
-0.02374968054196094	0.1265077582291779	0.03167472833320831	0.01204371316747191
0.01187679404074755	0.1914509540464923	0.0902452556156582	0.0464432357645556
0.01674888662234449	0.1933591074836576	0.02313942746999318	0.03163314403658918
0.02792364921405036	0.1575505945544078	0.01590705740641468	-0.001520285616572666
0.06108936036700321	0.08682150685422091	-0.03476995238961556	0.002452925260077838
0.03508403979078149	0.04561458521107326	-0.05194664781363963	-0.00895339977155942
0.03913804905245651	0.03688857222080529	-0.03909587106376482	0.01917929664704957
0.03457868364495864	-0.002925728417791585	-0.02693316675844322	0.04296890436369425
0.03539964493658009	-0.01736523835849987	-0.02817783017303277	0.04220240016981232
0.03657148838002135	-0.01917291858414598	0.0419821014733823	0.03263432538077807
-0.007357227575472121	-0.01199920750380813	0.01096005797597825	0.009416096937360445
-0.003618504074568777	-0.0102123391761192	-0.00180763482371083	0.01694951399860294
0.01286751903265944	0.004667866626061399	-0.00794516266707374	-0.00937182919314304
0.03156343761545419	-0.00989649722717937	-0.01775794196278089	-0.03840036125651401
0.001283474301301056	-0.03012232941225659	-0.01618816478149951	-0.006171476042451511
-0.01179321206865134	-0.01862032321655535	0.06167329737712659	0.0157061041886257
-0.02877677858408271	-0.03262511764214593	0.02103023570731274	0.01126736814422003
-0.03070977496122127	-0.032701487403623	-0.03344666958087147	0.001224355583744472
0.03242188738536333	-0.04134192192523891	-0.03485353514423774	0.01421965369521368
0.05040018485300689	-0.01807862095744336	-0.01905134335989894	0.02656708387679226
0.04024505491038888	-0.02789663475310454	-0.0008437875549898494	0.04185308828363804
0.02200218564366418	-0.03520237992880222	0.009439693806128529	0.04644774852868414
0.02213325891096422	-0.02833513496484085	-0.05048722066782031	0.028540129104269
0.01854971863962519	-0.01223814391450432	-0.04671382998297138	0.01670396265867737
-0.003137716686978629	-0.01986914251254994	-0.08466027879900333	0.07989707989176784
0.01631615031762876	-0.01480762712946498	-0.08692020456989315	0.07701201244514855
0.01323040975144908	-0.0120567795443576	-0.07602801379963424	0.03144776683258642
0.01973767745658146	-0.05463666307421806	0.1619514706115926	-0.064329911209572
0.03356820373966933	-0.03500972547461524	0.2267556146989816	-0.1152316799340703
0.02042472480147322	-0.03182375162956248	0.01876124737382437	-0.1570561739996272
0.0240115867402331	-0.02788533718736196	0.03216272462982493	-0.1061438891778241
0.03754507507736235	-0.0200086064809559	0.02074222794824172	-0.05881840325106123
0.04286410293807909	-0.01542606245229326	-0.04273883930357332	-0.06413390971404266
0.01633145370432288	0.007633625954159688	0.09024822319960135	-0.02453143085465438
-0.02766030398354718	0.01631074010377682	0.1426640748334566	0.008303605660303448
-0.08459644061771156	0.0267917948152518	0.03689462276596953	0.01598513738146435
-0.04235520917901529	0.01828700949182707	-0.07085863724170946	0.03310259711910253
-0.05495612308260263	-0.06112283777553838	-0.09595237476674481	0.07672349801806944
-0.09387102175312312	-0.05076861469951142	-0.09144546210702705	0.04141763560378252
-0.09721503701145749	-0.01308437179404881	-0.05132942035271688	-0.02525089267116145
-0.1257246101940093	0.0164442741007827	-0.04222251287347747	0.02330190086081949
-0.1121917607957017	0.03338539183564555	0.00764932355577906	0.05172672795048534
-0.04367456102965326	0.0593335860427448	0.1516043330265405	0.08701290726843768
0.002356169528156991	0.08021791785071546	0.05000050488986283	0.1316739627297119
0.01652926600947588	0.07769948215356709	0.02997894119603445	0.07826349877191521
0.002198928315512076	0.07192996773735841	0.003655689908403002	0.001143151289047485
-0.01355337628827019	0.07140865160884981	0.01713119763635084	0.01994453068210025
-0.01195843364059098	0.05235761177634814	-0.005175103417599435	0.1794410246072624
0.003825490250023952	0.00769043170632205	0.02657548715288946	0.3108025782632508
0.01243602194273057	0.00689507815280517	0.009398578317436065	0.2124898640833234
0.02869867099562485	-0.01990517002080031	-0.03493607765060318	0.02975632061004292
0.01464403543736072	-0.02632192794066845	0.02856360654936124	-0.04635337717700814
0.006146131211857453	-0.03380422364999903	0.01352239342929839	-0.3757905742526191
0.01060231054374536	-0.02342559838563982	-0.06632566787989652	-0.5334566115854259
0.0007637646904199189	-0.00350456317033271	-0.0480643019661238	-0.3466210847469597
0.00523277407613316	0.005045328938652465	-0.09783855961359643	-0.2716668203380479
0.008223714346837821	0.001362373218572799	-0.1765767783175166	-0.2392150103412692
0.025386562877946	-0.008700013718017244	-0.1161936229294299	-0.1647665336666049
0.04429042605685098	0.0137162678490268	0.1680434478730052	-0.05444201634173542
0.03865740909661291	0.017679219905506	-0.006725609349221026	-0.06080962594693676
0.009513898924141199	0.003511754811468976	0.04595548112437899	-0.02479024534944751
0.01260713441395172	0.0272734811829683	0.2215127632408536	0.04361453028236382
0.0056678672913909	0.02731635126508475	-0.02210867636025223	0.03163566783211608
0.004287866725148513	0.03819323379246149	-0.08172982398460982	0.02408547802190246
-0.000773827473788021	0.04507911129201866	-0.01671125674645331	0.1124249949053806
0.01469747594269372	0.04009878313351584	-0.00886830939031885	0.2658771020892722
0.005336129968370216	0.0201406247281065	-0.08245510337003313	0.2659180955140237
-0.002034171809278869	-0.01120794514393768	-0.1228783402172926	0.1742276141548145
0.01422434628179123	-0.004232457761845942	-0.1244336277785947	0.1304155054621809
0.02201236709556764	-0.007423863429649823	-0.223873397343309	-0.08150241743750614
0.03131935057828552	-0.00648681839344324	0.09113397191749535	-0.06191013746557582
0.006485345945435341	-0.0232596025683028	0.1913461123802707	0.03477154626843155
-0.01068452391520022	-0.03526415499025846	0.02295901913963991	0.1299928249229574
-0.005976985373730858	-0.02810664419998872	-0.02865549005172161	0.02836907117815577
0.0007418130715171942	-0.00225928752330928	-0.01971496466682859	-0.09872494686575474
0.04040214665086266	-0.01612202834264587	0.1774624753226491	-0.04195549931882308
0.04853164706203084	-0.04377272335850384	0.2593764135592315	-0.0115210846145234
0.03904391933235079	-0.03533020407524508	0.05562571649193424	0.05338687009854271
0.0185003465429363	-0.02879436460540347	0.04316583229835749	0.1918243427087299
-0.001453878301992346	-0.0362717700073004	-0.01364110250012043	0.1517573292226745
-0.00393705480866871	-0.01879617564889669	-0.008113560335566442	0.1248960410275258
0.0195637471988923	-0.03839583982512719	0.04210801715746323	0.07914502819770265
0.005466407333388689	-0.07775540243124467	0.02230201876112448	-0.1096159392288899
0.01017980756857793	-0.05263020273193322	-0.01408459406635424	-0.1470135676855092
-0.01819256983194362	-0.04563515878286947	-0.0407737468467794	-0.2243833519712204
-0.01519000261955155	-0.03887332253894921	-0.0434943563169756	-0.165273580614056
-0.01911790222823264	-0.03074226481860546	-0.05781733693045359	-0.1040298057785734
0.04283136747126516	-0.001113038021854461	-0.07643846187932736	-0.07566829973879007
0.06263851829203027	0.07129219395768839	-0.07594007413511679	-0.05360907247098459
-0.004724505166201646	0.1061696081982149	-0.08886133525738407	-0.01104804507195841
-0.03373410032846191	0.1450899670429543	-0.1182508993605284	0.02492268566184482
-0.09715408738196991	0.07739456589894989	0.037781328181703	0.03814785969962802
-0.09526456782645183	0.02305947603823297	0.05506467389703751	0.03652886985420817
-0.06746884355841203	0.02335624007780479	-0.07197590863971047	0.02773744411340373
-0.005159548301597384	0.009316214943102651	-0.1198853542800957	0.001913144051111593
-0.001461444633029664	0.01543772536508956	0.002435297404579449	0.04552537009467247
-0.03960937046491856	-0.01525105177310845	0.1974808404795705	0.09842221465303254
-0.04377398901903626	-0.04565081003866987	0.08504638680853885	0.1713048417036181
-0.04975521664894388	-0.07591701653697323	0.04989432892841379	0.1754633035204888
-0.02941532986319547	-0.09493091354911581	0.01648336332393628	0.1465374683827793
-0.0005884168161825764	-0.03933768101699549	0.03174781040494763	0.07310130213790306
0.02804437928811643	0.00174882777364677	0.006323612248927265	-0.07162771392007872
0.01617380960677858	0.06071405080012555	-0.06304433033086716	-0.1497669495049946
0.04776169139756523	0.1060706254352294	-0.05927582218738861	-0.1035652296965247
0.05546578104030549	0.09314538538280276	-0.1140377535713807	-0.1060139579726437
0.05055478290117141	0.0990405634254423	-0.1318377679277323	-0.04282002561030179
0.03360065784314654	0.08941644241819843	-0.1437406442060069	-0.0036286784972518
0.03423791496726555	0.0567887938711043	-0.1270193209032315	-0.02764277941309861
-0.01822132252373427	-0.002857657540652204	-0.08758976272674064	0.001598390636969247
-0.00814745260149102	-0.04424449684687594	0.05014606476753965	0.01780373278619063
-0.01224809603324537	-0.04829104803923506	0.08166243799931444	0.05862157784463957
-0.02402796026991895	-0.03213984978307573	0.1237174558943731	0.07261667144102127
-0.01607319602363255	-0.03697693522242081	0.4740374548102122	0.07428129628665234
0.006689952186328569	-0.05784795789292142	0.3650684779745131	0.05422083137778078
0.01105711896456502	-0.09494819132580942	0.09056728151113344	0.04520010982158643
0.06277929894975159	-0.066019814952771	-0.0301773148326475	0.02645857780449808
0.0438865090707982	-0.02934492087609105	-0.09313868860042387	-0.003167874362101721
0.000184135641067108	0.02413650757203461	-0.0005803977892466411	0.01517049526350064
0.01643107428716462	0.02174378627747456	0.05601914353283974	-0.03029349644913419
0.0172457055907748	0.02347316707760547	0.003906671007934293	-0.05347718571471975
0.02497830293566153	0.01565133000675838	-0.07362965326855743	-0.01046453050988413
-0.05593240194552207	-0.001936326767993085	-0.07967094834241835	0.02273150049883102
-0.05741103455565567	-0.007658665265449604	-0.09557049739389728	0.03964096869909669
-0.04069017647800084	-0.01546216587133603	-0.07262510189483137	0.02531549532137432
-0.02245577567801188	-0.002853544168211729	-0.1183755865433415	0.01185419609785963
0.04163498685624521	0.003744927893993089	0.004386030071068411	0.009056713154070431
0.003293068039372168	-0.01398741316257482	0.0325566197957769	-0.04308195875656251
-0.0102041729846224	-0.01720474402477855	-0.002009120182172443	0.01008917097616864
-0.0148719988519664	-0.02055659160375944	-0.1064257841103018	0.02548814157346607
0.007602597326814435	-0.04341889389659254	-0.1168483586958977	-0.01557989150637313
0.05689699704920902	-0.03628908526803663	-0.09378244008964215	-0.02432314460769618
0.048947020055731	-0.07173404306806951	-0.06502111354456007	-0.0586635499912528
-0.008019407815177982	-0.05160976300474676	-0.002340999254176381	-0.1240431371678319
-0.05246596714703764	-0.04226689470901862	0.02978912431586173	-0.09646566100423914
-0.02189593004248511	-0.02241156352255575	0.01195245553256092	-0.0498735185089308
0.01877388149500811	-0.01348732619665361	0.1777567576920292	0.05272500227973474
0.01545500404206516	0.001427955921714468	0.2088185372461182	0.1210223428701441
-0.01239263306960731	0.00713646765315249	0.02661885412102326	0.05724640149177379
-0.0298924533989837	-0.04670651249181288	-0.07787656173224543	-0.03727331633334541
-0.01848236798007225	-0.01500609923747001	-0.08210097864779722	-0.07429663012373068
0.003311997332038768	0.002514808064417899	-0.06827373461733233	-0.08162964745503459
0.01166697076826669	0.006400409029557542	-0.07260288003950399	-0.04669406397176046
0.0007844175326995317	0.03583088319439504	-0.04599415522222234	0.02826423775602098
-0.01973579317994339	0.05954972382493593	0.1024472134701841	0.1403891045570776
-0.01639967232381689	0.06523392116003432	0.1329742266383112	0.1095716365448963
-0.003912968275073068	0.04839724516732187	-0.0254012607492811	0.01322575015611698
-0.03433466230795658	0.03586116720641992	-0.1183199792332367	-0.09864598664887295
-0.06153169950400514	0.008210359367365243	-0.03870941208292469	-0.1310047705085639
-0.02479842194894589	-0.002800784861676107	-0.1180498057269034	-0.1195196521585691
0.02686937615325851	-0.006554942497451439	-0.04700641245555734	-0.08526617693591569
0.02532950066386538	-0.002260248560333611	0.2228197973247845	-0.02800778225357744
0.02868967414399948	0.0167682501880238	0.1998943255232269	0.05402490946195188
0.01998562798118277	0.03884599717816743	0.1341900534805405	0.07359950015538867
-0.01766476370111593	0.01929090285926036	0.03075999050234207	0.08076555368169987
0.005311357604961781	0.02147928499727575	-0.05894524250094713	0.03691636062185182
0.009518063918389736	0.03487341051145004	-0.1361722594938342	0.01543652945943257
0.01628173417885402	0.02941012307278066	-0.1436491337439827	0.01251216037342144
-0.00511646473202718	0.02449637329377545	-0.1425002571893384	0.01190935243134156
0.0309099351237765	-0.007383024438819106	-0.1658576348871109	-0.01721843169484352
0.002709502349100158	0.005411656984097653	-0.01438942926181626	-0.06817871355109277
0.01526025079610728	0.02951309142229073	0.2813358689795192	-0.03424322187488862
0.007973073869147527	0.02268695490934513	0.2435022570804573	-0.006645249319406222
0.01991995147306017	-0.01605571903313942	0.0857882438950221	0.004412795626786778
0.02143362681893525	-0.05580778027141513	0.1201781382647392	-0.06679123070761077
0.01502651993416438	-0.08142330086982882	0.02803914693421343	-0.1851673741690089
0.001538388207342156	-0.05248428614142241	-0.1010731899476601	-0.1721485883196843
0.008646878628768749	-0.03054009978305747	-0.1998686804009775	-0.06185082960849988
-0.002121613927747689	-0.02667552727617986	-0.1079913178753381	-0.0004460555219765394
-0.01005991670175825	-0.02974978344622963	-0.001635570246093674	-0.007683949424627508
-0.01792788909989619	0.0002533209251159725	-0.078300686092086	0.06256639524737302
0.01723104334086269	0.03032208527635356	0.07983867061300816	0.0955333935523254
0.006833878268964435	0.02186849873749017	0.185428311691944	0.09342011337004867
-0.03178746910755631	0.009664639028177239	0.005019951071983864	0.11598873124091
-0.008582355380397684	0.04612225092371453	0.02218329555526226	0.03842893579197181
-0.05479893694648859	0.06412393580769546	0.02657427405634926	-0.04932120323271691
-0.06145271615346224	0.06087849009433341	-0.008030197987039748	-0.08529263525686152
-0.06140065280016953	0.09288854934711133	-0.05605937187808853	-0.0511750298545457
-0.06415325796576825	0.08983977402443001	-0.06546372826153737	-0.007121931208545387
0.006548200048796247	0.06712153947516666	-0.06575670816524415	0.08417064118452089
0.07189949510925829	0.01202497109991794	0.001251078039118235	0.2464824549762976
0.06275824846372793	-0.001588372660870569	-0.02087181729938882	0.2781319217245504
0.03777054944628114	-0.004965578067588807	0.01994897232806171	0.1937086501823313
0.01204114872883708	-0.05605970541444628	0.09023227833224744	0.02679407901401828
0.01380416994274141	-0.05729684520992821	0.03712426542035446	-0.1582034424700366
0.04089538904286612	-0.04168731960716459	0.0257934142216798	-0.2015795926583248
0.0150558388928439	-0.03121982906484514	0.01961399585278645	-0.2105429483965139
-0.01805957018090796	-0.01053629003794328	-0.03853379892369516	-0.1705204676671206
-0.02620669912252412	0.0009941071250193266	-0.06986706570879479	-0.08051024206108941
0.007582793817245342	0.01112245968476685	-0.08562282237909223	-0.05231571401573454
-0.0001177251126390865	0.001816001044247032	-0.100141911800811	-0.04890094703913248
-0.006477812315193522	0.004101807555033521	0.02894049734853527	0.0414413586128245
-0.01162009560079807	0.005386440081512492	0.03909955697722697	0.03817531950949217
-0.03737342847934495	-0.01405789256322021	-0.01729123423603754	0.03258302189452298
-0.05180339578414205	-0.02180640292789296	-0.04066943908112671	-0.002940895792225507
-0.03902934790279126	0.003129917258023397	-0.05288985277316249	0.007922916722298928
