0.0146276901599771	-0.2113198287494529	0.006621512615896122	-0.00763411774834231
0.03557472609509401	-0.02950857129896976	0.05019663918258516	0.003662775928478077
0.03697055069886897	0.07395588221018061	0.06020980387999135	0.007505371421200936
0.01423291597070923	0.1226465935554361	0.02908663755239142	0.0002221166086755114
0.008824485112429635	0.1490646816272473	-0.002087927109622827	-0.0006449003065759443
-0.005796290958685904	0.1384113679090314	-0.01422611232559624	-0.003082776134746086
-0.02837266758580751	0.1597344463306388	-0.003388397205079354	0.01088612797060175
-0.02902525980838071	0.09655696339543762	0.0001643932587855287	0.005889907935771612
-0.01764518529918611	-0.02261757757425068	-0.01378964879913998	-0.01684554959075685
0.0007667526892763079	-0.08059928184637603	0.02412200266952842	-0.01063922383445106
0.006685159134457884	-0.1318377798095927	0.0116933927716122	-0.01718641937083369
0.0178994591743402	-0.1043097337519846	0.02011497373049735	-0.01669912703103887
0.007243464143674103	-0.06263785016049579	-0.01152013913146394	0.007787918447539484
0.003297121502673351	-0.09538755677675161	-0.02124947617371087	0.01896870727356596
0.009888209868033519	-0.0998673240608135	-0.01423316325789068	0.0191852300869103
0.009437063814938432	-0.06993526552931927	-0.03711375188560503	0.01951560523607643
-0.0008975678390375886	-0.02573204670257891	-0.03470220246583535	-0.003179879666668938
-0.008059427759666822	-0.009187178534558881	-0.03986532923331344	-0.007816719031971531
-0.00533919325683061	0.0164403310769183	-0.04514171755029035	-0.01113946202239599
0.00193278851170628	0.05534430881655251	-0.01568995711741413	-0.01408683993186471
-0.004609168187449726	0.09934652022003322	0.03368206236850654	-0.001096548762454847
-0.007460799856542411	0.09140389307089808	0.04059299715117698	-0.0005161486064436949
-0.009948914708352893	0.05936029938977235	0.00407565238171447	0.002875031101737095
-0.01888208355833086	0.006639719104704912	0.03459283025092363	0.007711553763318637
-0.009939153083637929	-0.04856675138726107	0.02007181849293756	0.005515078430502788
0.009334320329164789	-0.06097553740538551	-0.00466175472507712	-0.008790273179636212
0.01879520229194629	-0.09588206642504604	-0.003392045846470702	-0.01898817725990946
0.03422408373832014	-0.01979284276353737	-0.01022159131082555	-0.0160683399717666
0.02334575644421473	0.02217159662744935	0.00110104728187993	0.004781816519217968
0.01997200680901865	0.0402995228566153	0.02015617842495191	0.01647210897143168
0.01145913988586586	0.07053945933470185	0.02041707994494338	0.009174428031994832
-0.006759375759912672	0.07524628369532686	0.006008366982731656	-0.006353672748848901
-0.002762921027663949	0.06248932595672366	-0.01852251538017876	-0.006966486077252777
-0.0006750671975819136	0.07874043509031552	-0.01162585036564906	0.003388911207690204
-0.01130228258846208	0.08016938751909662	-0.01521291116457611	0.005925960271855398
-0.03070987680739367	0.06436820371250195	-0.03658194331845814	0.009008034914014099
-0.02238485016845961	0.05980909068204059	-0.0219747245941593	0.002289218335339898
-0.02243489190404156	0.001371522436577633	0.02176401703153553	0.004328196581974641
-0.0130719623759706	-0.07571703459359726	-0.004768215070233285	0.009104331924686284
-0.005127373345904694	-0.052599179518165	-0.02589374988539399	0.005969625350500281
-0.008536381440229231	-0.01462890633976999	0.02060969234864703	-0.0111738303788108
0.00165228315697836	-0.005753720459867743	0.01762993379607793	-0.01156308794024624
0.003322334802941194	0.004319604318063195	0.01538336147980583	0.001271497035578862
0.02954682315782425	0.02666264431483116	0.0002174066602825227	0.01632773058933486
0.02302069369890495	0.04417385722278705	-0.01452122451538194	0.00797979276480963
-0.008748353020060095	0.05732280196483194	-0.001058804507786728	0.007758048585242903
-0.02321535995842363	0.01074996089758897	0.0132764090686054	0.005052953384450074
-0.001168223472422961	-0.05166780161312066	0.006076198783169052	0.002363894824558153
0.01050761081292731	-0.09573679260977136	-0.008680456727301547	0.0001019482587728985
0.01282113068168731	-0.1034836832048534	0.002042414425001458	0.002394792534249923
0.01916115306432021	-0.129836252032077	0.002656225270258955	0.01483352982085704
0.01416674800883917	-0.1177273046647064	-0.03085654421862725	0.005379232355660023
0.002099259741804309	-0.01941952104420824	-0.04929516289641632	-0.01058846389054972
0.007751493862149807	0.05180767762619601	-0.03285217402306161	-0.02200368369097712
0.009234089428457094	0.05811372198120692	-0.05460063290015386	-0.01116818645919337
0.009912112406351471	0.05676990695730181	-0.0303545035978893	0.0001682741648742398
0.01045737047206058	0.008925061709876451	0.03341764985682105	-0.00806300610146557
-0.003346696070880473	-0.0249288029591491	0.1047141081989631	-0.0004435752118279029
0.008938291832723913	-0.02335786720191309	0.01822275020286025	0.01033713784268148
0.01504148898234066	-0.02196008788045102	0.02405032208014191	0.008751850962907749
0.02103941742365963	0.006728110158802462	0.01774527475665243	0.0007822218876750792
0.01266178101462912	0.040533268542558	0.01050413559455935	-0.00128503827574963
-0.03580052298855459	-0.006193063100883783	0.04427407805438701	0.01284268627756267
-0.01579497071226389	-0.03028967612913528	0.05598120632633957	0.02148360092290021
0.007157274227451105	-0.0226341115819629	0.03240991462237473	-0.01437176466345821
0.007743955131002005	-0.02380271103962286	0.01694241327509998	-0.01711233206219452
0.006138879914023315	-0.01187354931887336	0.004294909353164463	-0.007339997133099295
0.005090906862224576	0.02546738912611182	-0.02547838478588391	-0.009989258099390327
-0.003583390284737223	0.05500762290863457	-0.03659874395841996	-0.008885756775883045
-0.03871223810325317	-0.005249451897611395	-0.001129996599084858	-0.01189817472190399
-0.05453386018709278	-0.004065759010027764	0.01017155600470546	-0.003812135757263939
-0.05737769186317278	0.009997798773849507	-0.003095525747200245	0.0121162084843897
-0.06027907867853075	0.03725110177433438	-0.001995651555152694	-0.009226919121218216
-0.03477030241804796	0.06513089486361499	0.009424991316629843	-0.01251868512245555
-0.01515144776356643	0.07154841802140609	-0.002933518095928428	0.003193066531331845
0.001631692722384413	0.0615315925767058	0.002804671515273349	0.0262805679752466
0.03150858738768344	0.06349433702473994	-0.01490985391574283	0.02536784290629193
0.02651509402467457	0.05194895553619025	-0.02209889765836729	0.009929834806131726
0.01682276308080568	0.02218305331468187	-0.02725945179281	0.0005516080812405527
0.006160155407504408	-0.06288328471121225	-0.02664258577006778	-0.008600895415905852
0.00191011142628767	-0.05821282414153041	-0.01983523578972355	-0.004943672474027903
-0.0042860434270823	-0.0158670868335889	-0.01153182597014594	-0.003650724126825705
0.003515208028790079	0.04101807932355931	0.02429128560357443	-0.01614831473533588
-0.003533325707142146	0.0658353566253975	-0.01926746825080304	-0.008252204884726784
-0.002295395804777	0.09192300662562138	-0.00555444998599422	0.007085341164929742
-0.003404658287637444	-0.04179787469777656	0.01362466142206704	0.002929882505200421
-0.001807963608634189	-0.08625947525898085	0.01030215219056703	0.01867948380761174
-0.002532794096940143	-0.02808388947632062	0.02377326770124024	0.01880403248639473
0.004988540627517702	0.002376008781068332	0.006261806786536447	0.001015302471678816
0.01747480490360324	0.01935869020921097	-0.01281659826757223	-0.007834289856802533
0.01945247545588346	0.008792224951501774	0.0233756633091232	-0.02068420578806422
0.02153404542141868	-0.0256472375198208	0.01861794670182315	-0.01465294367942564
0.0175757009614996	-0.00430821441293801	-7.669550928318631e-05	-0.005917989347259386
0.006929247606604026	-0.02362254253896257	-0.006408801020795532	-0.001048128434866049
0.009158091489742835	-0.03803658682765099	-0.01285200635264125	-0.004198588628623228
0.003708127070337169	-0.04921153305752411	-0.02812044611255159	0.0005196027005000948
-0.00801457457977464	-0.03216724634229343	-0.03227194240425423	-0.001023922748622543
-0.008414388561421697	-0.02006609564239028	-0.01284033344875073	-0.006561209772264239
-0.006330561574418037	-0.007307518142727587	-0.01301572388213402	0.001714137646457593
-0.01198386176020321	-0.01417269355084682	-0.01165463869328312	0.00387995164961936
0.002567221125020433	-0.02729982486977996	-0.005653945704599751	0.01558292005654493
0.01638009325380312	-0.01879083903825425	0.01288140030067286	0.002921937642332395
0.006930612960213043	-0.009366875833117266	0.01260498165387997	0.0001463451334180822
-0.009413763695387139	-0.008749177897101664	-0.004563234003154031	0.002181528898656825
-0.006328993728378193	0.001454684851092566	-0.0005518743607606743	0.007220149960260836
0.0005666664552602496	0.01299520243016772	0.05925114805749186	0.0004165211025445319
0.008944813201691729	0.00758729031093505	0.03590346282787498	-0.01403365814395465
0.009150312505437169	0.01350010032022599	0.006945574625191874	-0.002447741203833247
-0.007208561483682445	0.001668766012789473	-0.01610159234417063	-0.01203741340868593
-0.0298817154608615	-0.0494303088813012	-0.03102246020608944	-0.01055571418790991
-0.008977299693783431	-0.03976856613077835	-0.04790089349568984	0.001484863052952901
0.006534875321100233	-0.04616257273384693	-0.0277065975087689	0.000656051857537557
0.01378241454917688	-0.0352665480517685	0.01246764017674787	-0.01063619270028579
0.017695873528116	-0.019175896404904	0.03499282841034912	-0.0160250652693051
-0.002276012080209832	0.003374768343306704	0.0216587968261123	-0.002622090277479756
0.001930917902752229	0.02902033669698654	0.01359507014013817	-0.001755783828851876
0.006793586430105582	0.05661369463877236	0.04359021769028389	0.001109196597901948
0.005312028823079895	0.04487505159135479	0.03368134630929221	0.009851154845327843
-0.001287413702462342	-0.01610043760994878	0.002262053287532991	0.01065081448169821
0.002158812892997776	-0.05774223070899386	-0.01784265072916356	-0.001895616445097433
0.01786730324357812	-0.05790033827308166	-0.02277424856379426	-0.01238363290254327
0.0170804773736782	-0.04609806349723582	0.002925095945214814	-0.002886370734089374
0.01651820862407659	-0.02453279412842635	0.03444405249309034	0.002754385631927043
0.01862874066429238	-0.07102703971145563	0.00516489743578134	0.01320495530978489
0.01860303000170099	-0.1690399447466546	-0.006565238636660801	0.01596638073843612
-0.00162239398761959	-0.1026050174376717	-0.04224078466431954	0.007089596823320156
-0.007758061415469508	-0.05550789227977706	-0.04977198338143376	-0.0006851024353022003
-0.01837314414016841	-0.006394715220877306	-0.04591065113489625	0.0006374501246438396
-0.01807974272046133	0.06870911596534553	-0.03996108342031528	-0.0002887145138915832
-0.01375681278620706	0.1389691335960444	-0.02574052085698674	-0.007233325216089166
0.003616422488715233	0.2428099525685283	-0.007866863101346074	-0.002037295117790398
0.00958387962984005	0.1780767507507843	-0.0006047440424570983	0.004389704335256533
0.004064846866321409	0.09230489955944558	-0.0008575642244543702	0.01199682190346781
0.007016481626252603	0.1152333722827692	0.01231170862836689	0.0067273245319557
0.007569209972178413	0.05284837901307873	0.02654848883252264	0.02148443689556257
0.007423910710034939	0.02279593604915743	0.01120296764847917	0.01239521637048242
0.0002924286697252124	0.006913446640627443	-0.001650698476592386	-0.001456275662070577
0.003149517363217004	-0.05694116766422214	0.0147658157071613	-0.009788748517006791
0.0009072842272200856	-0.05487279669340472	0.02451534160177804	-0.01771496778434477
-3.711704226341424e-05	-0.02825461969356957	0.01625354293674865	-0.0204292921605634
-0.003269565043235344	0.02680491780518579	0.01636641576630228	0.01368346577428177
-0.01050407099415781	0.03239841657364204	0.0196163112959446	0.01453645325431479
-0.01837564861911349	0.07374568197036872	0.01035648987971904	0.006635926770777484
-0.02710870638051053	0.03630924802400579	-0.04065786662445943	0.0100249647152564
-0.02470910869146875	0.007300742763974665	-0.06628380514683575	0.01809498414460507
-0.01135400819229198	0.01546208281988821	-0.06908275615338014	0.00587809856975189
-0.008486360325029882	0.01373682552078858	-0.00764479115943473	-0.01332897512883899
-0.005737761727374947	-0.005156245036489802	0.01229340544083089	-0.0130623392595331
-0.008361228793949538	-0.04493076025346884	0.0401510826872765	0.001377208391603708
-0.01243863603536361	-0.03822967010269655	0.05258816731472812	0.0008416269369848099
-0.008407993863119991	-0.03707995885845765	0.05082539315547122	0.001116614325098437
-0.003719731837743626	-0.03808067154257932	0.0225878265052708	0.0007585704120426457
-0.001608218288811718	-0.03647323086669354	0.01409988603221293	-0.006381532412582891
0.007245920598446437	-0.02381223952940506	-0.00395349318452246	-0.002294582736186026
0.01540223912075511	-0.04258137751575388	-0.0161910447242872	-0.007215121950968201
0.0186054172287177	-0.0835221920192909	-0.007114561912045824	-0.01670603175706266
0.01182065440015696	-0.03029723576743079	-0.01833015619198656	-0.009394757453490691
-0.007553745290325568	0.01062900904949413	-0.05188970660961013	-0.01250603017237278
-0.0101611656714074	0.0267326713338657	-0.02774005338566801	-0.00767098633985203
-0.006372659144056099	0.0243883513544236	-0.02121073224904213	-0.008025674098105255
-0.006439870213890433	0.00739387297546967	-0.03039667668755559	-0.002379750348838638
-0.004435433198201633	-0.01753390113607045	0.008950669959464259	-0.004018807378688349
-0.01907906562285703	-0.008678522497175569	0.06730517926507368	0.01073960813313057
-0.02677102966669248	-0.0009412562690985581	0.05506544119504182	0.00822647068408334
-0.02707398094478415	-0.02963578107230523	0.02560429536755527	0.02389112471191698
-0.01439992758043947	-0.04855887855785986	0.06477973695568415	-0.007601093152759393
-0.009616765712421911	-0.03676037119163643	0.04832281851206033	-0.001953663072615945
0.01100003795464622	-0.00331726662685236	0.03103943918416798	0.001439325470345282
0.03299687666278673	-0.08433607688804697	-0.0003909875941624269	-0.002999328930467045
0.03838567302455615	-0.0888348188630548	-0.02037885786174152	-0.001984938808555916
0.03457010027708516	-0.0457661839301742	-0.02429175704647299	0.0004083434320352269
0.02098937499939548	0.04008788108617352	-0.0274620096058142	0.000958014908283244
0.008728417471263763	0.06571683592253143	-0.02418569676442812	0.01400541783922961
-0.01013310530412852	-0.02687493212680509	-0.02270901985792163	0.01412001331438138
-0.0169822384268824	-0.05678152704189715	-0.003251341728273346	0.01320307989528007
-0.00421553264968488	0.01835932363284641	0.0228289300693826	0.003507331597217364
-0.01030541738707862	0.07597580367799585	0.02854053639245484	-0.003686043518832445
-0.0001909387677377361	0.05518092739697181	0.0072520535467386	-0.01226476471227116
0.0418807400839399	0.07172163116265842	-0.0200418678170449	-0.002665802578102212
0.02919464317735076	0.1185611360209965	-0.0141542139534628	0.00421222461666209
0.002674060130654235	0.1109659650862168	-0.04457064002354282	0.002734919754416902
-0.02554332122901271	0.0874794823964359	-0.04167331161335316	-0.003716315338323885
-0.0217626565068515	0.04675371036456961	-0.0449889845069649	-0.004751545179935859
0.00739554275788338	0.0471373797772535	-0.06019007597004961	0.003058166207493811
0.002531584002460243	0.04989047498121262	-0.01634743282108101	-0.007342622483332404
-0.003133337201533913	0.04472635538461484	0.05925344982832022	0.01658870466286
0.0008732845896460434	0.04820582247723468	0.02188479493424535	0.009634871387815293
0.01402214015578412	0.03846635817472711	0.01671214914576107	0.00401506704792119
0.001213239986441506	0.01407184948063652	0.03747994412880922	0.01323112625998251
0.01212288951892731	0.002405176210915161	0.03643016422012152	0.01998614038207156
0.007051968596880362	-0.052251309881878	0.05487362533382963	-0.002188936964286847
-0.001033421345267972	-0.07988029450762893	0.06453935808305977	-0.02004579849028098
0.0004283830479054213	-0.0658991008353524	0.0353191496458575	-0.02322595799381107
0.01456031884010479	-0.03741919655716048	0.00789991701351774	0.005355424206361421
0.01167376550936633	-0.03651657723909539	-0.007777605138661259	-0.01326194128991548
0.004418688926634058	-0.01625636147178951	-0.02349139084257424	-0.02105397268200694
0.003526084046332651	-0.03030984879643074	-0.04843206601125435	-0.02014893652866246
-0.008196483518058873	-0.08614091895701603	-0.07585982349799376	-0.004460255243516255
-0.002988063613087166	-0.04804374660151663	-0.06794594771853657	-0.01185226270736857
-0.0003609566881539837	-0.001803230880360408	-0.05164944326836981	-0.0004226982966284313
-0.003643952397072008	0.006501340983141297	-0.03566235794098274	0.001883955436411402
-0.01830730382529158	-0.01515057240342099	0.01116463801742435	-0.007685034597753151
-0.01570762828289047	-0.01182326092843908	0.02677234217445893	-0.006427696458698601
-0.003357263146267845	-0.01525942434433852	0.04607981645599916	0.008447550174418261
-0.01685853035752645	-0.005243520368146832	0.01539246309711677	0.01550791599585936
-0.02463654286280046	-0.003657553254909823	-0.01569987779815477	0.01095401061649593
-0.01347349246185561	-0.01313433005955657	-0.005313253790806196	0.01126552888552741
0.002076876305802035	-0.02125912030675953	-0.0181141581023321	0.008916137834307036
0.003288062306767607	-0.01448355422500292	-0.01542397509889613	-0.009714863917515144
0.001159904448199417	-0.02134747370237471	-0.02839502880153464	-0.02940103918940863
0.00255734034674007	-0.03588989169872752	0.01440027796817372	-0.006965281844890305
0.005256919884226567	-0.02681954063715602	0.02922788139802147	0.008310334941813307
-0.0004724199431125742	0.01648087214187718	0.03149668082032192	0.01324916718737125
0.001417874564324121	-0.00232088796367334	0.02322662164833426	0.000476492698697493
0.01126621817673246	-0.009445775705457711	0.0227784951760172	0.007471665137866818
0.0371915920707763	-0.0803195080074295	0.06509136779551969	0.002080659395492329
0.02215182673138932	-0.09167516101787074	0.05059063927976779	0.0008303016242807668
0.0229879495253705	-0.009561037210057891	0.02614751477075684	0.01001775195021356
0.009580148886618777	0.02716308664343569	-0.02072013884623293	0.01493891835753113
0.009040597010494752	0.06591636529850811	-0.06431068193739474	-0.007370871942079111
-0.0141703814064022	0.08774383876011346	-0.06714206315774064	-0.007646698701197696
-0.01915172022778088	0.1033402309576019	-0.04383746295857114	-0.01048754156318389
-0.02434970052127256	0.0733754777822142	-0.03000011622729091	0.003309769690790062
-0.01969472512152531	0.06545217964829736	-0.02113742438793166	-0.005357771623019957
-0.02764108990870959	0.03781408325705987	0.0320371881955057	0.003336205052096666
-0.01951818750935114	0.006360978069195822	0.0312906591892606	0.01260335797226089
0.002999184512303946	-0.003067648654871734	0.01545539882338623	0.01316939080667933
-0.003516644059186009	-0.01981016657501571	-0.01636058437763682	0.004185063730841171
-0.0009684884198736478	-0.07888454036716103	-0.02814582401183468	0.001524811138297826
0.01191708816830887	-0.1203313089555531	-0.01743756805702354	0.01017014328457045
0.01513019780351654	-0.1654187752314078	0.002430551140866229	-0.009758309436694439
0.01697477393116975	-0.1648400695225039	0.009925512143523583	-0.01994849014464344
0.02789690894021721	-0.08724689230313631	0.00285382316347849	-0.01197029065655404
0.01178034420299252	0.004338932725949964	0.01299629012326934	0.001121062494079493
-0.008039389398419148	0.06480862721325603	0.02008458482163454	-0.004545262695094065
-0.01148254834140746	0.1208582652441345	-8.896767361609987e-06	-0.005614688377022211
-0.01468873005891004	0.1655037929099194	-0.00852102946516178	-0.01305822862957244
-0.01797055620384204	0.1541567682476119	-0.06140564716442145	-0.01448800128853514
-0.003600852318065012	0.07792617894123258	-0.0358887543145063	0.0004411109683105837
0.008755195173617754	0.0316158956526446	-0.01784042723942209	0.006994393211532584
0.008131713709007239	0.02052381101926251	-0.01638691635740568	-0.002042879728689496
-0.0001301900776022947	0.0379935722866274	0.005057314059128754	0.0008424893583922982
0.0006574095325121984	0.04654325149841699	0.04931849557514908	0.0103528735291517
0.00756762282073007	0.05081690926459135	0.08500069903612006	0.01600088823037739
0.01410797417333319	0.02682982719734493	0.06228668969009295	0.01828138321491748
0.008294565516230595	0.004177681381560207	0.002024334699997484	-0.002713414990703997
-0.01761892655903812	-0.02919702800512525	-0.01150554356570857	0.004480558477640758
-0.004785730174112061	-0.03925134299722408	-0.02009232212559126	0.01215987300958262
-0.0037295110481309	-0.01301823919938051	-0.01846623475552666	0.001668030691794014
-0.02578165680165235	-0.001653693928938131	-0.008923633552633472	0.003204526730661005
-0.02372297333201952	-0.01139869595491526	0.0233752104374252	0.007910231492891504
-0.002717248786406307	-0.01293382921758269	0.01667997538483145	-0.006799813848698204
0.008354925900853034	-0.01779564522351871	0.05315458079035527	-0.01099229114220526
0.002282947471415322	-0.04246543646258386	0.04083865146955799	-0.00729689272104981
-0.002107732764665066	-0.1167411544063074	-0.003789263891058366	0.01223364768522142
0.003590592634838311	-0.1838980035672158	-0.02418962853060042	-0.003278234616112391
0.003023459327253547	-0.1619843163232134	-0.03229575886242877	-0.003672510487947792
-0.00151754127377309	-0.1833086275930415	-0.01970727163292678	-0.001232810223778385
0.01465626651579873	-0.06467380566008057	-0.008442232545097942	0.01249185669790129
0.03153713743898167	0.07010967303705704	0.01240653957229321	0.001569066626680325
0.02068226551822357	0.1629788353937862	0.03404295138716926	-0.002188210431331737
0.01190276502269149	0.1878806245184904	0.07101673767691405	0.004923782508902933
-0.01352170343312074	0.1871552669874074	0.06854613439212631	0.001817437216974534
-0.03095788572282313	0.159753708659674	0.0294705053830553	0.002311302245761566
-0.01894263677973991	0.07591704269775472	-0.01340405338992075	-0.01183930999794621
-0.01208536846028029	0.03216338740817729	-0.03921945760035237	-0.01637229478755536
-0.01224142562588154	0.009139089618080796	-0.02757555161187876	-0.01765932099088001
-0.01140321790264161	-0.03117804243631717	-0.02655081458179253	-0.0169365297412838
-0.0006663026969696463	-0.02123893636968614	-0.02272103274062696	-0.002907183434943738
0.01479931728094989	-0.004946701515361755	-0.01733149893000495	0.00862151604841036
0.0198883956839175	-0.06750736398945291	0.0006021837289268641	0.02054472574194846
0.01312269706867772	-0.1352135284286295	0.0007533570679402213	0.01030356953516046
0.003885294555650726	-0.1621310465070772	-0.02233956569326508	-0.0135589797570831
-0.001532901439917145	-0.130269797913122	-0.02764537709013521	-0.007523623509128821
-0.003154294484704243	-0.01804591864042518	-0.03719395141470172	0.003536538701583514
-0.006503981630935605	0.08638094666440699	-0.01897547491649589	0.005431177926716014
-0.004265106429329933	0.1171870560627996	-0.05035825814312864	-0.007541679342351562
-0.01227302204742214	0.1482049888908322	-0.0378248145096374	-0.00762664079347773
-0.003061308990035516	0.07676659717747164	-0.0150332465702656	-0.002527873085407023
-0.008783125860174901	-0.02014413023126933	-0.003855304470491642	0.02066814352449117
-0.02268141579503244	-0.0742768144140033	-0.000862723242258238	0.01870103624625058
-0.01769373224794597	-0.06434359865770679	-0.01029718295282941	0.003336310395190506
0.002041932516838933	-0.04871543461627489	-0.0009713329895354383	-0.002299140542388689
0.01091864098783031	0.005231987303684078	-0.02729722230234618	0.005041335124124871
0.02433442214179924	0.05655125237082627	-0.03773537341537078	0.005036270514849155
-0.004411431974348689	0.04861126274997817	-0.04983818655683718	0.007698991817833605
0.004113972822318321	0.04442701222762197	0.01314687751966475	-0.008682251739716072
0.008620466813862734	0.01286105314861508	0.05547516822721611	-0.01321070041313096
0.008146897191016933	-0.05334172202580913	0.0541448909016814	-0.01507575063290484
0.006759203096864748	-0.07435569339176508	0.04124606341283317	-0.01095722415194383
0.01139960894879157	-0.06406889341281234	0.01940397865766924	-0.01644999100860461
0.00934702006117347	-0.01895603877187598	-0.005941598063418334	-0.008812499722580162
0.01247765238053476	0.00909188944065183	-0.001609153901261221	-0.01155734658509956
-0.001157186261504121	0.0268997158656163	-0.01506802709287175	-0.007501696945226391
0.001712011172893407	0.02894371938330734	-0.04556538373306973	0.01213727638481423
-0.00360360373513998	-0.02885282641264832	-0.05055832710638208	0.02121162132425862
0.005677089213258109	-0.06887803999263845	0.01910960781453628	0.01528002741657941
0.01988730177833977	-0.03923087634088607	0.02729346824921333	0.01597923778789461
0.01200489265171888	-0.07787783891756586	0.06053444257499228	0.03713079315573695
0.009303989732923795	-0.1553765527225842	0.05677417962434075	0.04602660352172594
0.001002736441458592	-0.1857213412527923	0.05197484425222192	0.01347265655563022
0.002040714904231249	-0.1094446543936336	0.04299642815444724	-0.007836688743941028
-0.01227870650600708	-0.01231504535838748	0.01328102641598191	-0.04224620844136057
-0.007717816007635216	0.08954851762556383	0.005866305964152313	-0.0288314143647811
0.002660446204474361	0.1849853572423758	0.01621017497255245	-0.02445892099576765
0.01325856633250538	0.2289535295747279	0.01491052358337038	-0.01343585771468215
0.001933766781614273	0.1858917234208013	0.002699627321310019	-0.0108090339289241
-0.01059501551929515	0.1565102592796027	-0.01022729216372432	-0.007874324119053507
-0.0206860576859715	0.1357551814553497	-0.04056889535358456	0.007914846079548029
-0.0137087345248995	0.07533111687124695	-0.07249355915441953	-0.003849679683236941
-0.005873540841487708	0.02928972816464521	-0.04282144645456922	0.007593112459677951
-0.003231546915620947	0.01588135107680525	-0.01121306915104384	0.02924736851707904
-0.001499936592920756	0.002818733372841573	0.02332912177409933	0.01433430089241508
-0.009903745031265733	0.003233120460886175	0.02085663314263891	0.003734261113486419
-0.01152059165063523	-0.000615728469667249	-0.008272586308914615	-0.01016744225288018
-0.01778132017773656	0.01080327391083329	-0.01506315983077891	-0.02029440392797135
-0.01036658033390845	-0.02124527477747535	-0.0003731851628344299	-0.01821303014571793
-0.006835956952369833	-0.008526592894573313	-0.00396179529303593	-0.0002853041103866029
-0.006927549955883142	-0.007158861191026688	0.002205283600089345	-0.002254350270036297
-0.00757943492024563	-0.0710449303183083	0.03210056114773729	-0.008079969129189037
0.0142870393714057	-0.05625750811966633	0.01232855016707819	-0.009998952080962352
0.02252882414881185	-0.03921845339458773	0.002624768492929635	-0.002180552584150015
0.01481497834513744	-0.1102426281320875	-0.01429077772071577	-0.003415677379330667
0.008223648884107376	-0.08676188089895474	-0.00407037829450539	-7.827941300339747e-05
0.02211376970427468	-0.07896156628584582	0.006266595458780088	0.006619556149262494
0.02290177552731366	-0.04180254514122855	0.0001025453306803192	0.006079013026648004
0.02306033683338179	-0.03373940391905009	-0.01171346337605779	-0.005323312713872881
0.0003753672567684012	-0.02504872600824299	-0.01432355182162514	-0.000937549546724598
-0.01718433940952618	-0.002525046215643326	-0.02913446698539903	0.004853858357404794
-0.01900889561747226	0.002400553086269564	0.02851275060269857	0.005343217188239111
-0.01487941607947182	0.007244259955959276	0.05257716133861948	0.006640632801273074
-0.007526812879507207	0.007721657334093841	0.0008479111523057181	0.005493666368567944
-0.00447764105848829	0.007479529116320555	0.004084776428213125	0.02119509710839605
2.863022024944417e-05	-0.02317790716169005	-0.006983367621550773	0.009112682412572239
0.01777260167778309	-0.02360679700268331	-0.004889092040403724	0.01558008767426981
-3.695991165470861e-05	-0.01281266437804046	-0.007910094196274928	0.02855813526344599
-0.0006322185950570568	0.04185048467772591	-0.06260679552281823	0.01120251011646965
0.0124322322421262	0.05300427081725173	-0.002507842408056902	-0.003466723485589241
0.001644208186856531	0.03620380208045976	0.0268623258678217	-0.003866708236773322
-0.003490965476968969	-0.01333613102874307	-0.005782755217587582	-0.002893119451632938
-0.01937492747606508	-0.0230703703964811	-0.001147517436669218	-0.01317570391251994
-0.01145912066928372	0.004714393422342451	0.05244082780338293	-0.006464807199150586
0.005929305931172574	0.03717995370517049	0.06121595664879647	-0.004175082486801917
-0.00558029319373078	0.02571815240649227	0.04021489219852485	0.01620243399358628
-0.01145738314386218	-0.006559374217063724	-0.006176908170665384	-0.0007595943430874067
-0.01545635500579495	0.001318125625526807	-0.02765568416717772	-0.007208580430959118
-0.005305433646566812	0.01916559420615922	-0.0305972868210609	-0.008237189196273283
0.0101268323237525	0.006163005856613282	-0.02587072736474719	-0.01292325602776982
0.007068337146517493	-0.02785688818064068	-0.0006061880556038596	-0.01063777360759754
0.006088924575043353	-0.03230054771277902	0.002679968066082884	-0.007485956374969946
0.01141710228246065	-0.04603354015504979	-0.004266188821495115	0.008150687093044952
0.005020429264801175	-0.03441748920317648	-0.003398128660930749	0.006025834315093748
-0.0006700464089702098	-0.04458690347122738	0.0002328154088442321	-0.02037250446907001
-0.004238033743508359	0.004038818006466288	0.01352447660046053	-0.02562565288792113
0.02251298660968865	0.05639737672799724	0.01024447415410919	-0.01013629852974112
0.02230414454739047	0.02488246586351804	-0.001996614645402073	0.00121582868026991
0.001163965531394347	-0.02916810015383586	0.0228438088346371	-0.005437273353635473
-0.007402448828976466	0.007757565797309731	0.02609588982778905	0.00651303479570173
0.010345522847428	0.08051070918704914	0.03560126924430474	0.006909822996042133
-0.00623764058635053	0.05691439301659992	0.006058291211978216	-0.01112567255492397
-0.03635782628953902	0.06394533227159477	-0.02883729163063075	-0.01847496683171075
-0.05709036201039071	0.03408721591436852	-0.04385976845539401	-0.006773318157758254
-0.04408598981068661	0.03523672335970814	-0.04804138662240733	0.007072357421349867
-0.01725055843862342	0.003899975551891353	-0.03754950509879276	0.004493004525110911
-0.00480979102631241	-0.04029022242407725	-0.01031352008002528	0.008113518768669519
0.0122757233530662	-0.05069719536968569	0.01390834428348815	0.008878339612486708
0.003595549255332582	-0.02372399678963276	0.01957879976323475	0.01644874170199465
0.01417063549106497	-0.007457204770394605	0.005697060495112713	0.01554704283189966
0.002291912324410457	0.01342660407482778	-0.01922269788229226	0.006892723835038742
0.001856613829023508	0.01201060675951402	-0.01422204926714804	0.005657734623206573
0.01782117083614822	-0.002653650571606238	-0.01532431119659792	0.004270567213879625
0.02273046759376638	0.02275046273390949	-0.01986150203279863	0.009414253815393622
0.01467558842644655	0.02055084713010922	-0.01472878166003276	0.005058509258644065
0.01103952179171257	-0.0861838280374506	-0.003564259668847109	-0.006874916984750871
0.02607520971303614	-0.0582601995198621	-0.005849899021296744	-0.01239838499687301
0.01034622390813636	-0.03803761190112894	-0.01394946950684214	0.01467787660318057
0.000474195563262536	-0.006266655206819397	-0.01003505609013081	0.01857495675400681
0.005925117759225436	0.05761347477646601	-0.002528473110398543	0.01445179304073205
0.02486164966276548	0.08171385440736346	0.003086059085766113	0.01297863571735589
0.03663847991766118	0.07181579101557509	-0.007392833867136506	-0.003521907059999667
0.009961279380506727	0.02835848795755412	-0.02123727210679412	-0.02321407345965982
0.00628620216338579	0.01254211207519641	-0.01388644247874594	-0.02188633341754296
-0.003750757536437957	-0.001622965370255825	0.0066501405314149	-0.01018877369583454
-0.01996814894476552	-0.01975473568264766	0.01505797381441521	-0.003553638836004732
-0.009673701809437921	0.002233786435421768	0.02683114216514218	0.00736208264990682
-0.0004851721579794297	-0.02865940244906478	0.03488013914476409	0.003674249719195225
0.002113401500572665	0.01657890608441719	0.01785525425167425	-0.001366790524737178
-0.01776297145138152	-0.003516828598212499	-0.001861922227233348	-0.008075855611308254
-0.02117822676077035	0.007092379083776858	-0.01559178270411412	-0.008400067153046451
-0.005465594301040275	-0.01203146137467368	-0.004892379665346816	0.003015948510071281
-0.001548967454075728	0.009766572663180461	0.01423519319807235	0.01824695734618089
0.0001645502389748025	0.007787367798776943	0.02391772795737194	0.01324763576485368
-0.004146071325266149	-0.02400633359632654	0.01806706775939706	0.006446067398154147
0.0002710682141032584	0.01113149279466503	-0.003170975439899514	-0.001679668193300356
-0.02035565323663204	0.02554864708651832	-0.02656099482519362	-0.01198238244282281
-0.02939311212931101	-0.007161077799041076	-0.02330439739015676	-0.01722184676788426
-0.01943528795146375	-0.09487673364600614	-0.05621708436441152	-0.007326105965549613
-0.01142987308355358	-0.06837520840889648	-0.02152677062659292	-0.00116131181038804
0.00240694388991164	-0.02496283237344904	0.004143794736105409	0.01922644585521484
0.01004752010273747	0.01619645426964555	0.01466710557809156	0.01044793335249737
0.03062747929822114	0.04188713235293732	0.02725771200472319	0.002136735752045272
0.03890977785299264	0.03107270389517414	0.09365185930105449	-0.01744849008520519
0.04228497691618584	-0.003508799585406481	0.07444000401602084	-0.03094197058737241
0.0224908303782162	-0.02399707076937375	0.02778363651621536	-0.01983276912513589
-0.002816245185729444	-0.06802899177221401	0.01813428234436202	-0.009925471146418065
-0.01052129789902179	-0.06727090151629869	-0.0007403312698297322	-0.003535246471562862
-0.004251004334796831	-0.02005651066633155	-0.01329600550264172	-0.004960412751585652
-0.00127841771207268	0.01364733455250744	-0.04717751428268916	0.005133155911597265
-0.009450050145011761	0.06457844051156815	-0.0652568851066548	0.003505506243303695
-0.01934261950832487	0.06490634958714336	-0.07100801073211667	-0.0003459000920706983
-0.01839542759176439	-0.005724067799457303	-0.05061642038631017	0.0109276364589455
-0.02619077645826641	-0.0303683093063873	-0.001224852199923906	0.02288071919520676
-0.01405235729101547	-0.005389469155645578	0.06868262791740683	0.008327286294860202
-0.006556634701143611	0.02153258450715542	0.06714105508946927	-0.002522832145949421
-0.007021172661437531	0.0237940625797128	0.07124572109119667	-0.0007206331732598244
-0.02914616525375259	-0.01844965769858898	0.0269841750182077	0.008164531493704894
-0.03586789727604997	-0.008034451301055489	-0.0384568881004187	0.006716745816221664
-0.02737633652428125	0.0005241831588408846	-0.02281607566361046	0.01295992347922255
-0.001421613964398365	0.03926241848951244	0.0005552058993631549	-0.005559045495625027
0.01465903773504808	0.00576512262531158	0.01997856555098555	0.008237377695857534
0.02332986851177672	-0.04114637622870885	0.07405311950506195	0.007123171606197782
0.02213292065460705	-0.04679277275297677	0.03659682039519003	0.0114990897686819
0.02079260135429107	-0.03518027679124618	0.02255944395219877	-0.01082781389557947
0.007989869516844775	-0.08976035092273595	0.02604711405691594	-0.01988687708878924
0.002808352165058571	-0.05337390631392106	-0.005134892930225235	-0.01811621234972303
-0.00030304278237188	-0.06754165944347348	-0.02970427979243211	-0.0002546109693136371
-0.0002654146098586881	-0.06635385313371549	-0.04460029348056224	0.0133909227142066
0.01639899421680687	-0.01166979131675858	-0.005818155579334672	-0.003344448280458372
0.01047969224095171	0.06639268062698801	0.0229977356865045	0.002645781153235746
-0.003153951507219299	0.05034870166825937	-0.0139638301945024	0.01604204419062315
-0.0007278134893780905	0.01963565185151063	-0.04429488496920657	0.02143215397393823
-0.006692868335443348	0.04463118470463792	-0.05180578632327672	0.009389285155814955
0.0002351248848847872	0.06942229610502319	-0.03021944336566636	-0.001876834401335006
0.0198230036032278	0.04214169816074158	-0.02988995296208875	-0.02626705244094029
0.009945687427396066	-0.01984024574086064	-0.02664382621818122	-0.02711036832437814
0.01236294576444171	-0.09116905399951174	-0.01271382382160785	-0.01513650621832019
0.00375859524859848	0.01963195320642495	0.01701564975991834	0.00511401971860668
0.0009549770872552144	0.07605535927698043	0.01823199354727522	0.01108183581304509
-0.008494488625593077	0.1218474581073809	0.02367818447095881	0.002526490335083862
-0.005288294282768911	0.1175180344517349	0.004790160814349984	-0.01244782639118789
-0.004851547521240695	0.1002599128024616	-0.01985209372676218	0.005973425467057659
-0.006694608311186481	0.1263449200764402	-0.04866576113599855	-0.003658873740079333
0.004442808610049165	0.06666965539304602	-0.04686122343913177	-0.001921235966600818
-0.004458579316848323	0.03020164227374095	-0.005173208528246601	-0.0008992821385387711
-0.01057327120668441	-0.001648614242606576	-0.0108310815812963	-0.005130626389535442
0.00311672569132712	-0.02372782547343598	-0.006669988394055948	0.009561783974222741
-0.004514287958821747	-0.03889695015480244	-0.01889962310485397	0.01477710599853839
-0.01063535687005846	-0.04207955612943386	0.001014415496749649	0.0205272453805355
-0.01347899519862226	-0.06779052649933733	-0.02299625722899249	0.02251847019503261
-0.008165011034646381	-0.06833049602554341	-0.02920219044714702	-0.004386900261971091
-0.009861474088567182	-0.06963193601134322	0.02098123139521007	-0.01992378583416157
-0.01100639811376289	-0.04284911974110148	0.07606070634093824	-0.01110833722579162
-0.01441113542283062	-0.03035538772942119	0.03844225879374241	-0.004436131423167727
0.0008528338682161002	0.02066613834218475	-0.001993925739209979	-0.01485733697339373
0.02130080939029222	0.03172865014893602	-0.006487043644425937	-0.01376647018800165
0.03063604663917651	-0.005903362524877962	-0.01263342236326314	-0.01027361758495114
0.02469297284686375	-0.0195196351633797	0.01477917205929698	0.01337740257366341
0.02604887658857878	0.00879428809185313	0.02142752929685886	0.007267329092060428
0.01692998239844876	-0.003361668066740548	0.006624778944729546	-0.00693801968851968
0.01561622766818561	0.007644977362178361	0.01381432718328809	-0.002734430957953754
0.01204136933271566	-0.05221642544789071	-0.007381487567575759	0.006171870597641045
0.002411758897450066	-0.03444807320058801	-0.02055487452066022	0.006311803090330989
0.001935310034801374	-0.008873536916578073	-0.01628036347011685	0.002483435430967048
0.0001399096141208688	0.002512303523562493	-0.01610836359684422	0.0003359064375995503
-0.0004294933034109731	-0.02871351129586365	0.008173709622129275	0.00742023806180122
-0.01951592707640876	-0.0603073177975809	0.01899008361797841	0.009667253274615087
-0.02226750619408185	-0.05483329935869136	0.01059523743854259	0.009836025301244011
-0.01950568878404857	-0.04854489918810934	-0.00237555636976062	0.006571861551962338
-0.0278042342005292	-0.07345646976404448	-0.009647709439875567	0.008782646483924818
-0.03335769216341547	-0.06288326529924922	0.007241684171807633	0.006005932463586395
-0.006137935559248168	-0.04096012970055399	0.02172737530454482	-0.0113908518666134
0.01442260002117953	0.03470201819435979	0.03004636409927398	-0.004810233629051621
0.03422065803418756	0.1096239194225074	0.02234718554216867	-0.01251167234689475
0.02580242347560211	0.0868566661833879	0.02697442496182566	-0.005064545810931602
0.01311486471790571	0.1171779892298883	0.006736161776756528	-0.005194552179849391
-0.01085101540192717	0.1309364647591527	-0.01921801966561196	-0.01230258914801207
-0.02011795871099053	0.03107627046032476	-0.02069256519346066	-0.0073750249002715
-0.0005399388655973788	-0.01806918085043076	-0.0002422935383851259	0.0001007905689653123
0.008205583515659752	-0.05780899942011317	-0.01363584409686884	-0.005189669486705849
0.01460343816232704	-0.1340969796296478	-0.006056167842565001	-0.01238165351814853
0.02026852761492123	-0.07086103034473989	0.02325392986810457	-0.01515299858559965
0.01502450877288132	-0.03228979525776982	0.06528324493429249	-0.01535314352121972
-0.006757019613677086	-0.01849865061841624	0.05258527396221291	-0.003186216809563594
-0.02318792158114136	-0.008485190705700035	0.01132540713991672	-0.004473754947749276
-0.03478869079875514	0.001793836806058437	-0.009788085645740388	0.01287385813520064
-0.02672205009527184	0.02717654789696254	-0.007506665608080699	0.02775952411806578
-0.00972214132397616	0.06657705851679488	0.004073621315761907	0.02886926993723367
-0.008424419621361139	0.06876294720120657	-0.01848362346029806	0.01094131305055362
-0.005307241750953948	0.06225504349282866	-0.05665158323523518	0.00636430913098433
-0.004523315602626814	0.05376484558918303	-0.06441026085494685	0.003732169154197235
0.007139363068880954	0.04909021442799531	-0.04176971699449264	-0.001652700252615262
0.02981818114082655	0.05508442427834308	-0.03024942109997475	-0.00722614984450212
0.02171495771621812	-0.03783042964018265	-0.01148063023354268	0.001922229375726014
0.02682078656863096	-0.1318963761030433	0.05272533891547446	0.002373203014375821
0.01879280134003606	-0.09700862148856355	0.06515729613331755	-0.007111235120619346
-0.0003582752462820702	-0.05432036861524325	0.03337726812627218	-0.02599579913040689
-0.01100290701685626	-0.04378992596541564	0.01124965163268556	-0.03298816305584849
-0.004475317663867951	-0.0245767994813859	-0.01540155427494859	-0.01023911784535565
-0.004687571933666191	0.05667868556900225	-0.002081654049963261	-0.003154797266116344
-0.02021635023797344	0.09995940731172888	0.006798208025302357	-0.002503067814361234
-0.02523230105807702	0.07040587636248566	0.01149854696884169	0.01274410303593271
-0.005539791591350384	0.0008144034088378199	-0.003534607850734554	0.02268608204052571
-0.002132667844736743	0.00342255099132428	-0.04148834497072081	0.001982733209518734
-0.004220565717341385	0.02537396383404666	-0.05488743543233852	0.004803039317712646
-0.004292146189424985	0.016935871196978	-0.05280087182465631	0.02183345606798994
-0.0043777283647297	0.02254785941984254	0.0236630986128392	0.01332915705606073
-0.00578938587815508	0.01155860356369492	0.06662397232420511	0.005630263450675427
-0.01609630324021147	-0.0238563741583516	0.05780317033929636	0.006113799678108639
-0.01119861542460011	-0.01975176202955199	0.04363540160380443	0.01766974685638837
0.004444552820724656	-0.01342679976580481	0.0434924654049492	0.01888708864061777
0.009496508156495874	-0.1128763954484052	-0.04731735128262891	0.0001035326675922552
0.01395235699748106	-0.08911228885202355	-0.07638588224482544	-0.02568164114663412
0.02785966771477268	-0.01059942918300853	-0.05063839631605776	-0.009984943002246907
0.02138245324701039	0.04801081070902977	-0.005572136692284432	-0.0001711489249030738
0.01205606437625034	0.04567189003679817	0.01186684047834026	0.006965863221631362
-0.0002400802023866332	0.06277038648482534	-0.03747059729923637	0.00401438893205451
-0.00906727509237432	0.07127575971086494	-0.05825581389950232	0.00111473775323687
-0.002002014666694758	0.08762001198123508	-0.04909087469725122	0.001474809579740807
0.0167870438480753	0.05627421180459492	-0.01597866262542471	0.001861093430803646
0.02230882520124077	0.03223226973484603	0.003218822124922053	0.0001305695791242554
0.001555492505033925	-0.01917511877860268	0.01944632935272621	-0.001030948236842075
0.01265833298448189	-0.04110508629367061	0.01321576703206859	0.008945016394865083
0.02382912295354447	-0.04202045892920151	0.006715872572383867	-0.0144364234785109
0.009979847066226894	-0.02704796278051879	-0.03028453529855813	-0.008092822772735453
0.007729374661247181	-0.03566074202872536	-0.0270272224765534	-0.007639858913465581
0.007663802609600296	-0.03479719151078839	0.004645502148881769	-0.001289086206683322
-0.003254280133991541	-0.02220118953449499	0.03529352433229926	0.008307563021077808
-0.005258121093971662	-0.04936775041149692	0.01507487070879131	0.01392111323182157
-0.01418043411502712	-0.05239484604494772	-0.01904187776575364	-0.0004895345154209105
-0.01419357608845176	-0.02024025606615994	-0.006981917070727449	-0.02250673183381148
-0.02434631140235013	-0.05238915150285941	0.03997043758778438	-0.02521903480365928
-0.005569399470779224	-0.03038446629330847	0.02784229216924516	-0.01843832722361753
-0.01041087164840207	-0.03210150937633487	0.07764617590306513	-8.332777718504124e-05
-0.02095261541069983	0.001599230075408698	0.08007840954060785	0.007942747861421368
0.005574592433580167	0.05300706451611304	0.05521021734938913	0.004075512262931684
0.0001236134222371576	0.07770841769108043	0.01987215832103421	9.09018591776853e-05
-0.01520420008880934	0.09086362509452964	-0.004479573518988997	0.003269524629321586
-0.008994104867621269	0.09513821751667348	-0.006531946823836454	0.009000259651081807
-0.003744743678868887	0.09980599356810406	-0.009470365933833227	0.0121689486208963
-0.004330752538442976	0.07235377664098269	-0.009631835004727697	0.008417441473412786
-0.002413428629466943	0.03270319859329759	-0.005792678456879584	-0.009740194833669323
-0.008578338167383043	-0.07653492701998109	-0.005494551494417098	-0.02394304275406547
0.00616820759336235	-0.1491997618067056	-0.03568370637437632	-0.006457438136021926
0.02049880733642057	-0.1031052726822073	-0.06076175831192663	-0.005222553969774528
0.001960069879192644	-0.06372558110316541	-0.06064554712919567	0.01155311719023046
-0.00979395863466789	-0.1085153390821079	-0.04758398628778458	0.006934863410504674
-0.00623053901458367	-0.05517465872985953	-0.04862220944123324	0.006761599701269837
-0.006051509578797147	0.005397898927155877	-0.0489817050122006	0.009626008398571544
-0.004730761423484163	0.07807290040728761	0.01721735557784382	0.01183067724304413
-0.01527725836963691	0.1167892780815859	0.09324589432063395	0.001828283463247608
-0.02515841192686669	0.07491977199159582	0.08603762604757351	-0.001637053801296471
-0.01693269774541363	0.0860797539769782	0.04103585227435114	-0.0003790831484033849
-0.01519152259099844	0.1042591551099921	0.03883147951147527	-0.0006092750967843355
-0.02890592069730953	0.09749471651703684	0.03211970456030692	-0.01146179418492563
-0.02434696107741743	0.03622254014362794	0.00924390084939287	-0.003383001126563845
-0.008392153716361353	-0.06835878513772253	-0.03236940858038595	0.002453971581811625
0.003151076969131738	-0.07572349377463219	-0.02209309968675426	-0.00914386729398319
0.01891742774282917	-0.1029272931587015	0.009458823128689653	0.001264317821983574
0.0365632242934421	-0.06002304722065083	0.002803483333561519	0.02324061400054891
0.0370020990914706	-0.02018818420546148	-0.009305299592975349	0.02745947892052959
0.04068063728285224	-0.08295150032154743	0.005507618651292406	0.04377607169179885
0.05736280792599048	-0.1452952929571773	-3.888163946897996e-05	0.03603403118205398
0.02912105551969137	-0.1617377339734968	-0.005481505056397705	0.008450582920370448
-0.001018906876837508	0.04568644784710919	0.01607225786837936	-0.04315427105617697
0.001887627697933607	0.05089797750702522	0.02170611910310619	-0.05234859497576051
0.01066996327539316	0.05998063654246392	0.006401860240523942	-0.03333015492475764
-0.006073773373138104	0.05812229538383609	0.007795466718566176	-0.0201390086326997
-0.008782365435204699	0.05484546955387792	0.009609957199637009	-0.01221766600314186
-0.01080697920630443	0.05284366980502955	-0.01742255866190521	-0.00270558168582497
-0.00176757266656246	0.04544004132538162	-0.03764687887065062	-0.01050271758138154
0.003764022684776746	0.03116192964654168	-0.02482059466762151	-0.003312150816975263
-0.01218398461371621	-0.05292534272541323	-0.01833289452773985	0.001375528665461133
-0.00937002311303862	-0.06909888240059896	-0.02211812977187987	-0.004424391938324984
-0.009062885151844235	0.01488107440784374	-0.04377598241216617	-0.001700160609728609
-0.01079484251418147	0.05125604322372753	-0.04207804736508124	0.006821000422018227
-0.01178621333246129	0.09027687312175835	-0.02788861103295531	0.02072208437595269
-0.006726075628826185	0.0958769288436912	-0.02179318724610569	0.009261353800768113
-0.01121510399346459	0.05578519076424705	0.02012889882962199	-0.0006281910679960278
-0.02473042648172554	0.00166593156399625	0.04934658511081889	-0.04741104379899846
-0.0206911320722768	-0.03963676736675719	0.03188517648767458	-0.03696795144299415
-0.02250754387450331	-0.1111023741417447	0.01307560392900264	-0.01689482842117128
0.0004450811234163729	-0.1362077062870043	0.001037389661191409	-0.007948677268054438
0.003838005295236598	-0.09904810392613279	0.02208831733071016	0.01573458231195891
0.002183427357867815	-0.07684939131791535	0.02240822993078214	0.02898048353037442
-0.0002946705411388375	-0.0690772904244806	0.009932432134847898	0.01494431570132208
-0.001802644594339819	-0.03405706012285439	-0.01285286282618633	-0.004000563151751631
0.00693889014636779	0.01752935960869026	-0.001935311188428763	0.01525003699848703
0.009972144306307284	0.01370998539662085	-0.01837423899319336	0.006340654441505099
0.02055679589609591	0.02172241923702312	-0.03215677664723553	0.0004681339466009521
0.02913289656861535	0.0515342199959195	-0.04560057182782327	0.001049477786245282
0.01950150510372464	0.04859810332694309	-0.0400550637682858	0.002007664739039644
0.01238745823695752	0.02659510718464344	-0.02239503720162915	0.003124894073541296
0.0001452288254016572	0.02295434988363083	-0.01681554752733323	0.009764804590209905
-0.02083647013270716	0.03388198372036091	0.0072629218031259	-0.001767237206656044
-0.006965134870831558	0.05173424132791886	0.05073047487433528	0.008539487259163828
0.0009273913549411618	0.04578324167209273	0.03428555602493284	0.01348526988069302
0.02188146591002924	0.01381122086120951	0.01274237644108234	0.01691733425186705
0.03006889324554429	0.01067205189994339	0.002735264347675691	0.01459923019874736
0.03767562228910728	0.03088701823089304	-0.0111066456838526	0.005401728422406292
0.02765323783193693	0.02386339146135263	-0.01221623329918923	-0.004642477778628844
0.02221475906555541	-0.007697233540543832	-0.002024451706394237	-0.004332272720970236
0.01577039147294591	-0.01073654158100439	0.01018454206685233	0.002732740526278961
0.02404004738660808	-0.06869118485900308	0.007702147650681356	0.007863944201378948
0.01032356973544301	-0.0940685487462284	0.008110645585754899	0.007590960214821305
0.004401888433187096	-0.05141041107820337	0.0004422592511468445	0.0009287352496303372
-0.00140683202380103	0.01207872019188017	-0.00888721549079405	0.00660952613672909
-0.01309214082201722	0.04527332189136823	-0.006198101481755452	-0.008332710030306861
-0.01994211558332368	0.08877803304521195	0.01505809492191132	-0.007174036181052979
-0.02469430510710012	0.06625359410694624	-0.03123603397001361	-0.006484718101622147
-0.02941477429064795	0.07182105802735539	-0.03778621557995436	-0.002137427326012015
-0.02510799995623307	0.08425924708160254	0.0003942831178501678	0.007934647757840432
-0.01491397579216276	0.04378725727129452	-0.006611806916360247	-0.0001060776678279977
0.002776892688724871	-0.01301474825653248	-0.006150041908756843	-0.000534035967435302
-0.02419903716953067	-0.0164403838847898	0.03987939782565875	-0.003254333052328882
-0.01237130143396415	0.05185670477382748	0.07188687302809049	-0.01208589098551504
-0.01334928119125625	0.07273107276339845	0.03758334069859619	-0.01477387879472286
-0.01594153332506393	0.07139046422690089	0.009970415411269513	0.007414536323680887
-0.01401125179380737	0.05396192515072577	-0.01885257973716884	0.01377540575718285
-0.003930978029528034	0.02180393228836755	0.008007675750503396	0.03631280469489076
0.002541169632172484	0.0147620592364787	-0.0344903257738331	0.02701891783811714
0.005817865687680931	-0.03901620098515202	-0.04537044504025157	0.005900129960835179
0.017869462663672	-0.04994099352847545	0.01430635962800206	-0.01526265620212281
0.01301014337134958	-0.05745994006510742	0.07753528817495421	-0.02744129869956251
-0.01888772469866153	-0.1166622806030386	0.06748757697633659	-0.02830849174758667
-0.01033282584853423	-0.06727003563556837	0.02167755418802707	-0.02182008288630467
-0.008079388522243323	-0.02698432832394177	0.01418912530160979	-0.008884857831036441
-0.01357814549974368	0.0006880254276872314	-0.01148955883512742	-0.006056611492144111
-0.02237719889991708	-0.003551444052270822	0.006320706015535507	0.006883791441584628
-0.004694027235989127	-0.02328633572218382	-0.01338987845572294	0.01432861373740037
0.007279985671709257	-0.1001564951949066	-0.02997668589461404	0.01942832894701885
-0.001595356717140931	-0.1026518492875623	-0.0341936170254374	0.01328688015832501
-0.00433169292377661	-0.1058975879120623	-0.03548294657312213	0.0009932555908079461
-0.005925489590334123	-0.1046117114356326	-0.01881324736996001	-0.006885801389146447
0.00534549505225221	-0.06469285123081592	-0.009208796251102885	-0.007714494519619614
-0.001694319817575589	0.005744020724976437	-0.02513180644268191	-0.006884384729806926
-0.01443412919376184	0.05747159852063155	-0.03133455668166484	-0.008327332638838383
-0.02073194178045173	0.1006338888919536	-0.004479329093300022	-0.004676992549622544
-0.00487789594225752	0.08804421213227971	0.01310655180165428	-0.005177132995092116
-0.01052322824410276	0.04839137854674505	0.04490210238556267	-0.005723655543491545
-0.004027259161449955	0.01694837209968405	0.03032266492999416	-0.00888378444344972
0.001009698153966306	-0.02770762127191245	-0.001375302126702604	-0.006913922313636454
-0.001381326294016426	-0.08067425258073023	-0.01046644980837995	-0.006942155297378143
-0.008190265470221314	-0.05835946324201817	-0.01416995659625028	-0.006663198852150203
0.00601242468540236	-0.05664115881282785	0.01209199579882774	0.0002582859016724293
0.009239851511394708	-0.05130608799979691	0.01127671976205035	0.00342104138434531
0.03409336286774756	-0.03577300889778975	0.01026900804605129	0.002445390670145652
0.04299619073674239	-0.03556016116670449	0.006336642321359964	0.001293675732046407
0.02552515612680379	-0.04576820440864586	0.00736200265508305	0.007705372516854213
0.01863954882746711	-0.009912776481798795	-0.009374510978225985	0.01325804729191658
0.007831694971605021	0.03342397579069681	-0.02213572859197075	0.01930627232076907
0.0009144323716684122	0.04153426931387145	-0.01171073875294327	0.01523786418300765
-0.009718959782993216	0.05201068885152678	0.001817703754876768	-0.00102817330239968
-0.007172716405020482	0.06577691380628369	0.005261672129917799	-0.008565381045818639
-0.001271816983641613	-0.02048032118924426	0.02600168216021161	-0.001237348432233154
-0.002780846014324057	-0.007885620825516429	0.01923377930596093	-0.003023570494349355
0.01431556326726062	0.004571142293394474	-0.01324067058224582	-0.01438054498928784
0.00681833550227296	0.03901309837605346	-0.05792772484748561	-0.01551292476203615
0.009684793484547012	0.07591263151099256	-0.01774060832772523	0.008387855631848176
0.007121148641681384	0.09805099283635474	-0.01556761697232893	-0.009597094161145171
0.004547259383788819	0.09687692277458142	-0.02653511065868093	-0.01894892689017614
0.003981162078740964	0.07797758432533854	-0.004893616657730567	-0.00458357863541783
-0.009766938159823286	0.103820771477035	-0.0321153944687641	0.006331917344143262
-0.02274077326608733	0.1326461456167137	-0.02306891097260342	0.01623732431423938
-0.02117980851931886	0.1268067333531598	0.008070377736024629	0.02192710247007867
-0.01668831108391652	0.106239066573455	-0.01920617014806003	0.0188411223540588
-0.007461047475376004	0.008630727725773722	-0.03197806427259148	0.01498974934597444
-0.008408966737859128	-0.07429501383521842	-0.01582687236072883	0.006573804219674162
0.01175701184043362	-0.09011998496373544	-2.931216515428044e-05	0.003044538128207255
0.03342725361307098	-0.05603279316378947	0.05127424798517809	0.00522438042633681
0.02491341422479141	-0.03053421163680159	0.1170300498066233	-0.009244356886160401
0.02398130764597726	-0.0425677842546236	0.1165682249244624	-9.233303918216226e-05
0.004412660269737453	-0.03821248606290663	0.06251641710291181	-0.005569001853111553
0.008434830936685355	-0.05604309135090556	0.01697813965947177	-0.006469200239005925
0.005736571296742641	-0.04430737677359237	-0.01700602354712415	-0.008728777884037123
0.004599754709792773	-0.02835415399439346	-0.031560827397684	0.003010946985268886
0.004519345305962734	-0.01261555604695203	-0.03505554885549695	0.0006360508998912935
-0.01804847883358601	-0.01904280492499669	-0.03380154283502781	-0.003272112195772961
-0.01167044190351503	0.0009382838253697264	-0.04222979845189041	0.002194596385403717
-0.007691093925298203	-0.01382224095642573	-0.01120836459457743	0.003811242577209539
-0.00154664733088554	-0.01589456952028252	0.026968965482922	-0.005401929046175089
-0.009023083026106108	0.007314574507271084	0.03186020798316587	-0.02099669743364385
-0.00523674620111622	0.0186721128339717	0.06096626234998269	-0.01979580235608602
-0.009575999493461015	-0.002177470710779618	0.0775967301698354	-0.01265769076745216
-0.006865168329569697	-0.06603436057962621	0.03751514108759356	0.004045281048571775
-0.001173411574002946	-0.07597104875989075	0.005715340928839893	0.02186193694291202
0.01886230025995064	-0.04291693796400172	-0.03139323146663295	0.01823823290264725
0.01329492054453849	-0.08508598192298775	-0.05708952648386723	0.005341438011838027
0.005945388778708466	-0.1479928272499629	-0.06003378515366622	-0.008103220544356655
0.01836235871281676	-0.1081041083118782	-0.03520963995142058	-0.005575678133944552
0.02859896278026848	-0.01826238675051911	-0.02284659265041319	-0.01264387839082674
0.04487166373528478	0.07427223954222262	-0.02441993750058729	-0.02224623836430922
0.03753872499741305	0.1395227538612495	-0.04973731614457017	-0.009741273950625929
0.01430626747319871	0.09868418237984841	-0.05824136442394982	0.0009872779995390647
-0.007878522002903938	0.04535518770630697	-0.03422987544529966	0.01505833560816025
-0.01158905868163989	0.02954578769073838	0.00985205857112207	0.02333601140609881
-0.01613258878540487	-0.0003740922720070803	0.0148386344213448	0.02114825984141884
-0.02668103217107021	-0.02425392522736272	0.003229258431384507	0.01938474395031436
-0.03077707802537475	-0.02775484783154902	0.002393791510720786	-0.000568636099097411
-0.02581551810385165	0.007511038816523046	-0.007666838385239644	-0.02730447592965668
-0.02522904680816301	0.02128019645859915	-0.008606144301212683	-0.0263470533651033
-0.0269688171539023	-0.02917523595074922	0.004179540609273815	0.001655597126998085
-0.01875473931892498	-0.02413902030031946	0.01068752021005517	-0.00229582483241325
0.00691780901631535	-0.01764543157291917	0.0104744330729011	-0.02788896922889854
-0.005412650181174036	-0.01554675292842577	0.01281695291561824	-0.03297949604377836
-0.009231829612989467	0.009562189350060847	0.01232820328015023	-0.01661226673846849
0.01581532076436959	0.03087810124724363	0.03324107203286692	-0.007097960873642866
0.007692615835043246	-0.01819462452341767	0.01919368858514651	-0.008667322577005336
-0.01381514770526333	-0.01099161157306464	0.03327403491688893	0.01583788516348504
-0.02902737212937764	-0.008065289817653098	0.03044522764304347	0.01957398812847807
-0.02225234080893	0.01344487094122914	0.002457620482697913	0.007138567803764636
-0.008516001007589485	0.0296958753350852	0.008589062565345808	0.001490143102185243
0.01526324915906221	0.04351217887146703	-0.02284931920791909	0.01158636585430261
0.00589437550365389	0.03362212956532078	-0.0287675245387456	-0.006220662527088566
-0.01190552570889382	-0.02362290556719198	-0.009193688736694298	-0.0006395141588356616
-0.007172517830470919	0.001303900917374371	-0.005995837644811845	-0.0001474722144237343
0.0005864001820332528	0.01349840546204864	-0.01517511043149405	0.01714589496621122
-0.003472720356171259	0.02386526046463688	-0.04539827510430157	0.004936291952828195
-0.01225646816449708	0.03791262846422385	-0.02662470002013822	0.001579744334340145
-0.01133256996825839	0.04584765132814572	0.01758985088805973	0.009318735117305287
-0.004289171430575117	0.07949938106941776	-0.01487249870729671	0.007863794965277855
-0.001866696126312092	0.04267940161049129	-0.0281099233002433	0.01828229583594672
-0.01259182296479048	0.0290983387287453	-0.02010977424028998	0.02695300037908128
-0.01170760347326379	-0.01528854474717872	-0.02519761507196958	0.005860481949758285
-0.004930763936109114	-0.007523784121723403	-0.01547290183927958	0.008987057065301117
0.0032707792547244	-0.0004837234555931312	0.06178848560423764	0.01001241925063368
0.001210367136245328	-0.005382430857974744	0.07185461496021715	0.005515697552686245
0.003792643068584434	-0.01453056110638487	0.02206740049361785	0.000531526659333213
0.01859189481120981	-0.01579620194472629	0.01623465296648486	0.01048147037847301
0.01971836538226509	0.006925499397121558	-0.0009625610105985457	0.006358539705236156
0.02342366385808396	0.0151018827244623	-0.002411810287735883	-0.002563619204990127
-0.02720485852171465	-0.01661477782607446	-0.001165454161420603	-0.01554551318230242
-0.01409316854491015	0.001660111816292793	0.01397769733568488	-0.006180480496395879
-0.002389023262224324	-0.03315953268265825	-0.01306860181800311	0.001702251754586909
-0.004320288861206205	-0.04925219900144379	-0.0001052292928801073	0.0115579051564084
0.007105895624282601	-0.001473376548334653	-0.001447696565223147	0.01228228079628155
0.01711953527789828	0.03663903661641201	0.004345328411970118	-0.009346870082901908
0.002617768424626053	0.02399751803821855	0.007335735741398447	-0.006040791970282852
-0.002489276596814731	0.01080364483278464	0.01281591985084926	-0.001068158344610078
0.01074097449051373	0.05800804791472424	0.009718290790100797	-0.01035250908211124
-0.0001189983178128355	0.01006422181220273	0.03788255278384663	-0.009060555852395591
0.004484261957162245	-0.02270239922999821	0.01411325943799103	0.003095808249002189
-0.0003616561945679127	-0.06748485932234639	-0.002599683806330908	-0.005047994151419068
0.02119926173636581	-0.07968197107059838	-0.02666216568272839	-0.04668778483644531
0.03676597395978104	-0.06087435067184965	-0.05001385677412902	-0.02998899042388357
0.03168293065033671	-0.02792996093828192	-0.05149235703271827	-0.01042876614825702
0.02604604991219343	-0.0126317059275913	-0.009575140168553261	0.006650275729148621
0.01503604689477979	-0.004209498724741074	0.03082780202986041	0.03367601926367989
0.007146587359535102	0.003347706755707062	0.02334892708571974	0.02373269172373144
0.00148229274525382	0.03028231137793035	0.005962741968260234	0.008247157733691435
-0.009423558195576274	0.02387869274872774	0.009778358076853209	0.0144773312139728
-0.01913691599215676	0.002004207611670423	-0.003513765881414236	-0.005014786791695287
-0.01418687992081737	-0.01465268376303444	0.03060192419048836	-0.009453153449079961
-0.0002692163573829417	-0.01049844872642152	0.05732726373212121	-0.01698114432302977
0.002989950293832761	-0.01284557939083216	0.02515511377980071	-0.002308565914761229
0.003647996286720362	-0.02398710622863244	-0.004792675191690741	0.0003973857740650799
0.004659162912019987	-0.1149582630245205	-0.01844456392546731	0.002426847315428748
0.01907838246947601	-0.1332625311839786	-0.03650231400631258	0.003476773034237031
0.01605279823880273	-0.04266807378239022	-0.02074797370139538	0.004144296228234069
0.002185193197440256	0.004070682078798595	-0.02749516744367222	0.006125575434530175
-0.0002879552569593225	0.09236346262901743	-0.01618573047057323	0.002045788983214506
0.00345699188602934	0.1095042697815358	-0.002465541771940326	-0.01015929070810083
-0.00776450170211808	0.08363939482333141	-0.01640099502192614	-0.02086046231007053
-0.01644249352241953	0.06058253084447855	-0.02824450136865023	-0.01168763287110867
-0.02267830066430882	0.04877550263369011	-0.01858350730510842	-0.005718555851207147
-0.008526418142519993	0.07135885669305435	-0.00751948091223278	0.007123144055599852
0.002795113427103002	0.05568917768292109	-0.005642059540000338	-0.001863175120843223
0.0007842021384400754	0.002247867254359598	0.01001507402787692	0.001669572713560449
-0.01466296001141139	0.0203371718754668	0.08613161080584719	0.01024619934416809
-0.02476018439893599	0.04997703793788379	0.08153581165420395	0.003251149654331573
-0.005187160497108031	0.03915214285346807	0.03697922783114567	-0.009262159177032653
0.005618218008160638	0.02713462716407618	0.004751384644579564	-0.003652902904980432
0.02827687320789535	-0.007822546834111878	-0.012065448663524	-5.660794613737329e-05
0.03010657225728502	-0.0110975022196709	-0.03406373374092553	-0.0009653007054374933
0.0146156328811235	-0.1086521291559347	-0.006878618605298895	0.004228293315094835
0.02104567108631628	-0.1067281082482067	0.001459705707689373	-0.004538074018858113
0.01935121268822055	-0.08621806992562112	0.01008520200084925	0.01417427295510212
0.02545937370237651	-0.05448141914255195	0.003369015868693225	0.03226568430096781
0.02789573753219744	-0.0293642955851365	0.01282812109444777	0.0200635700599046
0.01257662101052981	-0.03660315915134343	-0.0112251762555443	-0.003217931056919347
-0.02234816086841386	-0.03793709725466375	-0.03367864034174266	-0.01035699161319767
-0.04362608035989787	-0.1165540211349124	-0.009259816581669656	-0.01679430378220916
-0.05067354586649012	-0.05266354346127865	-0.003672941052803758	-0.01340202296848354
-0.05433860148392786	-0.02383575304847145	-0.01994587595099835	0.001629938280986433
-0.02929718843968992	-0.01350611949466515	-0.03436554361904112	-0.002189634580770709
-0.0073880541734576	0.05019251943993962	-0.03668788402376355	-0.001182863831111296
0.0008515031356429344	0.1120474609335304	-0.02957631044570102	0.01687842349954501
-0.01539890862276001	0.08411714813180642	-0.01917955711834158	0.01460936555982718
-0.01204835236626266	0.06906239231254972	-0.01148973474279794	0.0144550435917557
-0.01314472120849774	0.08725616644040785	-0.002361592960782827	0.01202755786915987
-0.01655401235663041	0.08998041012162881	0.02859269139644861	-0.0009632814033460091
-0.005377607715566349	0.05023294140819136	0.02044118759970769	-0.02882720671369603
0.004352280141262896	-0.02184301926220249	-0.002852870735559852	-0.02638248080132892
0.001248418905816135	-0.05746785487922761	0.00508770029643579	-0.01583111748733552
-0.01409503750677901	-0.08092106615478209	0.01400188003127599	-0.01002251467002169
-0.005920999973977626	-0.01061457307946161	0.006397202131877958	-0.001703842516513245
0.003987043015667622	0.03186670742967849	-0.01647317656716099	0.008743874857183632
0.009723150918270602	0.004509037032894725	-0.02327567205670309	0.01034967473600665
0.005880172809980799	-0.04881681510135168	-0.04173764050293476	-0.004780050625345953
0.003911702704122997	-0.1270709176686704	-0.02384439590656172	0.003341662751450414
0.02575377870753526	-0.1030656565383691	0.03888533295787674	0.00670388554424544
0.01564610173412255	0.03543753449259584	0.08752230888234147	0.003527737201151055
0.005556857950620195	0.06624806975162244	0.08213341130429304	0.01009146095672515
0.008740346299631869	0.1055515697766558	0.01586874118411338	0.005896562336215523
0.002419162160318318	0.09383291329093128	-0.01888380132286796	-0.001529217893778602
-0.009566079757951903	3.614793310830918e-05	-0.004392927874700489	-0.02570269880646507
-0.01056660143136395	0.01406132394232565	-0.003874166449495809	-0.02955593281984465
0.008048533196639009	0.01285491826013475	0.004069680615455874	-0.01591587285675468
0.0120607819370534	-0.03156029796377842	0.01047173709240403	-0.008787796225629023
0.01711293341843698	0.004994701496360688	0.002410292100751344	0.002962129031426024
0.003867951578995191	0.03028525600321402	-0.003368610037788637	0.01283240002594116
0.003158326519233543	-0.02274784871091086	0.0153948035313942	0.02720639186681541
-0.0005483951861339107	-0.003072736059597887	0.005822510655722401	0.01268209204261038
0.0007367603560611041	-0.007177707369511559	-0.02862147674525227	-0.004563845325241096
0.004564724069369185	0.04185016749681608	-0.03301060192773481	0.002473636287003794
0.01337467289722088	0.02967653437938049	0.01301048727026973	0.005556160662936478
0.006076276026447498	0.0156736730087713	0.01020967334168202	-0.01800232908729675
0.00228013135547679	0.001310072173450561	-0.007698046134230537	-0.03083847643774601
-0.005047365948892284	-0.005550629640787796	-0.009386413210554096	-0.007912189599075189
-0.002007864022246098	-0.0180206617052009	0.001767737594058841	0.00493894315424211
-0.0007132827059273772	-0.05625124175832874	-0.00227591993283063	0.0196210852480969
-0.006150809906895489	-0.07234878972645377	-0.02499402034872139	0.01286480504338938
-0.01122435097106969	-0.07224460824787221	-0.04111913815370247	0.004674648219298476
-0.006834036999234506	-0.04852561594288938	0.00675062825525405	0.005520846964145973
-0.003796548972327059	-0.008412378783402612	0.02879961175923646	-0.001457002005243414
-0.004191452261546549	0.002923648367738322	0.01062168206723966	0.00946735699783853
0.001831853401007199	-0.02325289800326177	-0.02066531904826284	0.003691688951132008
-0.01338521363606282	-0.02383904502376331	-0.02294507212741873	-0.0009235600628433464
-0.02016236700554642	-0.0084807692281243	0.004369168200004737	4.630494073533422e-05
-0.01196544479960468	0.02155904855228778	0.02245500153875257	-0.00176367682317568
0.00274602415789079	0.05006179772759409	0.01160726942901285	-0.005428327626446687
0.009936825771412887	0.03615906014154554	-0.01047485422799723	-0.003845657279862063
0.02243628332689281	0.01180847341831557	0.01110479567958572	0.002589635428340064
0.01545328443674413	0.006147802215749674	0.005690517618869444	0.008607424385421175
0.003064842653144391	0.01202887808879612	-0.04491358825921675	0.004790257891833697
0.006981254348762059	0.040365732708101	-0.01119393854048069	0.008889328143714495
0.02023274205707124	0.0883989855053493	-0.01017670472222388	0.006503008948134666
0.011596678368934	0.08312629977206082	-0.01604384441193501	-0.001685844881357636
0.007847197142756022	0.0794188354033316	-0.009448939587192735	-0.01370907434245761
0.02178459792471396	0.0568973838038862	-0.01883311795821106	-0.01066657412128299
0.02404001388975813	0.04008980174382468	-0.004482622646686837	0.0008012341033499886
0.01669018246855853	-0.0453325005345489	-0.01052260928719133	-0.006364789836764855
-0.002002926129167238	-0.1005157721926016	0.005612434705683324	-0.003763964667660123
-0.01166647960992396	-0.08904984635270993	0.01971746820733146	-0.002265261282924531
-0.02067052496828957	-0.04174767121176446	0.01814548888835962	0.008772153623463876
-0.01773308046958216	-0.02202998207041609	0.003748250596053312	0.0001829441242796971
-0.01846088610023214	-0.01155479720241096	0.005381163764148825	-0.002335038370614502
-0.02035673237300703	0.0006683749187931621	0.0186302231013466	0.00142541443660253
-0.02335122188873534	0.009092673747621556	0.02427630172817699	0.0106362635297523
-0.02302282571796323	0.03334427549700253	0.01781219113396068	0.008428568393395189
0.003219173244562879	0.01949906179121563	0.008622451924977773	0.006719713980896474
0.02117622869370991	-0.004349761599096923	-0.01766151656875821	0.01479865657146726
0.02061993244433749	-0.03819080501215661	-0.01966919818892827	0.02210680147597368
0.02033119001578801	-0.04908248996419356	-0.02464376416044492	0.01387215348917331
0.00366148765148938	-0.09188068760890848	-0.04150869380902823	-0.006855265573055734
-0.003349409118876209	-0.09459464626914246	-0.0317853426794481	0.002198311462979544
-0.00199398614592736	-0.05049395471801112	-0.03204116420850198	0.01165578828002684
-0.002354593834201568	0.01186806970873275	-0.02316015506561871	0.001187836984995229
-0.005519388793118218	0.04428191504650034	0.007981146603385161	-0.00907272046600799
-0.01244008933563129	0.0577633939358457	0.09059159595196425	-0.01840215683458805
-0.02465613922166103	0.04544589016574042	0.0566143415353501	-0.02257853008161243
-0.03568552069387772	0.002175893502042784	-0.001227406874881277	-0.01240030649307968
-0.02972166820119314	-0.01540611818192155	-0.01762045387520442	-0.003515348204104398
-0.0002336087679417292	0.006865137273622039	-0.01577960487692398	0.001396235528435946
0.03639066332384549	0.007971395321414198	0.007863386929519553	-0.002074502967478785
0.04733273517400634	0.01603269886406078	0.05467965605760083	0.02720612673434234
0.03911997409172399	0.02931208118500258	0.08215832276363802	0.0170567785506059
0.01095328776481499	0.03129479420061074	0.03373944635549654	-0.002406535199505982
0.004841969412543322	0.03260195558666663	0.007810028161254714	-0.01109904761798404
-2.600513591265515e-05	0.02943427904234048	0.003385573847224714	-0.008394487600829576
-0.0006694932747007082	0.01037522882781654	-0.005662712573354255	-0.01137603601729151
0.000607208516477004	0.02092350776477215	-0.018655178887719	-0.005469796026995721
0.01075597273668949	-0.03664285992370591	-0.001303616432977711	-0.009829818893000906
0.006201015412313113	-0.08890050475941325	-0.01405117491961698	-0.02379517105176645
0.006643371623697244	-0.04273610765769126	-0.009017622168000882	-0.02526519445833198
-0.004740935113388572	-0.03290638088311709	-0.01461970458575036	-0.01723081486214941
-0.005792646158845899	0.00524738242044768	0.03422723855980202	0.0209991567770688
0.007366851031707384	0.06072964579029064	0.03417479685515256	0.0329906167596831
0.001289217232968244	0.1648383753767889	0.01710915257067361	0.01559480565164685
-0.03004070300329971	0.1141734185143951	0.01632516678663161	-0.004370877764061532
-0.04258715698779725	0.01152563714992475	0.004555055950356293	0.004354774665526079
-0.02794526039079086	-0.01817900073533778	-0.005086237109904385	0.01669339284489159
-0.02378227098299451	-0.02646670406901521	-0.01064340986979956	-0.00479450108600752
-0.02196423681907404	-0.01604130583396819	-0.007763397533701335	-0.00754492305472108
-0.003833449832951241	-0.01890130453601256	-0.03316589733542944	0.007010182990275648
0.008060108853344053	-0.04554198285669949	-0.02312139571535626	-0.006804209417709003
-0.01946455762577811	-0.05965814811186013	0.0006574013656345806	-0.01016349633396881
-0.0262288683754623	-0.05506513906867332	-0.007815163346406603	-0.002555782261201847
-0.0134290849048522	-0.01340941739224616	-0.005287193610396654	-0.005548533389018077
-0.008134334905642023	0.02749807110987712	-0.01656022944808221	-0.001628944652783978
-0.009813857416101832	0.01269290354208366	-0.04863499454562867	-0.01026107160024795
-0.004668560370195238	-0.002341492950790088	-0.06883497187718844	-0.009198926309049048
0.008726474351925355	-0.03097050049389655	-0.06822433909049487	0.005996108366589262
0.02748442494957856	-0.02674338242013102	-0.03949454621062874	0.0185987448498336
0.03415664535460591	-0.03339967776065556	-0.01057824697424946	0.01955257489682749
0.03209671232215744	0.01866161473990269	0.001096699571147114	0.01637129252397575
0.03246215675282395	0.04575596986758867	-0.005219357830337133	0.0224144372254167
-0.01476301754042198	0.06033776768451506	0.04497443109103675	-0.007572768577224554
-0.02048607518020194	0.09835425942238178	0.08209964807365515	-0.03734246392993519
-0.003193755496248991	0.1039165315631172	0.006015494898641385	-0.04725100251683771
0.01204533928908204	0.07188948691741914	-0.009095320726913055	-0.0254578616534411
0.005354524293301605	0.007534690648892941	-0.0280727400395116	-0.01638783415502935
-0.002444280536137607	0.02199865148457791	-0.02439627801508519	-0.0179668093091241
0.001630755389393163	-0.00241820076972708	-0.01530167511334198	-0.0123192440072477
-0.001145365667730203	-0.03223965367727907	-0.01789064991991667	0.01820722668586758
-0.003000771718902545	-0.0647758853484931	-0.01391238917175485	0.02757828148330375
-0.002797215823487624	-0.1416511450439792	0.02147104283727995	0.03435015697630484
0.01000908473503583	-0.1406262558540809	-0.001426607667637535	0.04450457236115404
0.009728029068052261	-0.1117830748229906	-0.04551068521025941	0.01824510610516884
-0.0006169381824711208	-0.09979863905210556	-0.03091793592225347	-0.01227960428714844
-0.003019947820174685	-0.04790212221958155	-0.001121479605521351	-0.01429646713344398
-0.0003706657002917886	0.01347260080144423	0.02844283995334326	-0.006471953859369856
-0.005401521518834	0.04762211648432961	0.05747557446549542	-0.001747020161249185
-0.01276498407131398	0.0814301485683662	0.1135813340216403	0.006116175413410131
-0.01266123614335318	0.05236186763623863	0.06329351316179813	-0.00354735629577609
-0.01553180714364233	0.002541070111327775	0.03574412016838008	-0.00374568390877581
-0.008886098612207977	-0.0304522220156597	0.03008087343538075	-0.009275373147613033
-0.007647537279777762	-0.03125839888138467	0.0422977860600823	-0.003420059147421747
-0.005263971309835872	-0.03044764322083626	0.010092486572607	0.007729161650215673
-0.01350908080451818	-0.04140370474452	0.002952946529501589	0.006035837187536145
-0.02496396494736371	-0.04739974152456854	-0.004462397028526576	-0.01166309764932609
-0.01443180767419702	-0.03142040073366707	-0.01960871632435311	-0.01146267441278978
0.005796295575151245	-0.0216559115124738	-0.03216516550987127	0.004139061079319101
0.03437075330759686	-0.02599436832724774	-0.01583470963323364	0.01047985063735388
0.03768575204705323	-0.01700686883356833	-0.05750015009096687	-0.003387133372418692
0.02570092155715445	-0.01808550073282007	-0.07223622249377687	0.01105049698783581
0.01567463120074628	-0.04237315143964138	-0.05936939839988677	0.01276786218462141
0.01131332503304354	-0.1079493734050439	-0.005369919524276086	0.01370812959837322
0.01670464500030289	-0.0444477621303624	0.01005375748703176	0.008469754385724089
0.01691385763092042	0.02031586976507175	-0.01116447114748143	0.008333149801318222
0.0195600733611445	0.0924980711765076	-0.02223943088790521	0.005101489421228437
0.0287120702197116	0.1644451605934492	-0.03492970667781956	-0.01256243006304624
0.02492554048664477	0.1850748416701058	-0.0207262626317597	-0.01713077942316096
0.01719434728364327	0.1976750037977884	0.005072919902942119	-0.003221546250483653
0.005333291128107994	0.1213677323209763	0.01502247209220556	0.001299088604234675
0.01749395788454278	0.06045101203854646	0.03397651217044678	0.02046977298373452
0.001811948980589998	0.03366062700744428	0.05297518943862518	0.02618843862337199
-0.002249140995051762	0.03958463484948643	0.0311177263975831	0.004970522785023926
0.004075564842526072	0.04694735066201212	0.01125996363815581	-0.03320343138655751
-0.001804480528806912	0.02654829543131941	-0.002563385597905598	-0.03195185748571991
-0.003485372645256153	0.007286025043071864	0.001126258771774779	-0.01609881435459352
-0.009902824630049316	0.004897838015238729	0.0324714111314653	-0.006944611940257367
-0.0006769046414680124	-0.03121640712388645	-0.01151456214505781	-0.000807719428290481
-0.007394090723882084	-0.1252776594287554	-0.0006288014121777883	0.01590033378689824
-0.01397821738320431	-0.120025124513052	0.007033419190856639	0.006496648840790551
-0.01804177963369199	-0.06523729983375062	0.00772983622975542	0.0007933101264703863
-0.008337085085978697	-0.009974536668766897	-0.001231539701995509	0.01211696270144143
0.0002254476974251154	0.01698427289702092	-0.001932699040211263	0.009518629837012812
0.008702820072372872	0.02542171492171073	-0.006488420293727086	-0.001943490158715949
0.01952517967893892	-0.005310134209634865	-0.01610407687232879	-0.006461683609048479
0.02143835915204952	-0.01915304875322223	-0.004152825174594205	-0.01387209115903231
0.01716256331086525	-0.04686343469814933	0.005981884501695266	0.003559085886515363
0.01288007081775495	-0.06033225169376746	0.01438222808215335	0.008521816868825857
0.01541834668056236	0.003971886296664331	0.005879342477992221	0.004123929299831354
-0.0002380626090847107	0.01394114806250939	-0.01145129479367362	0.003362207654445257
-0.01841621763474465	0.01910840204997123	-0.005666715546734614	-0.01341026938960399
-0.001836666989979336	-0.008500710933988926	-0.01078172322315454	-0.02438421853707121
0.007000633465508311	-0.004928029185686669	-0.007292008069021788	-0.01663248116639193
-0.01562291352525167	-0.008564594064938633	-0.01192912356203103	-0.000167613563649878
-0.01619165700580251	-0.01286045165960188	0.02298716269756685	0.0006758541547377296
-0.02167604400117903	-0.02200403580715565	0.08211115657551107	-0.0012980444924492
-0.02353222738319075	-0.003043085776516475	0.07726071661690254	0.01362134420461185
-0.01130198483204458	0.05075325828381663	0.05239791856611892	0.01723916981945933
0.01030210614589562	0.06543122541161778	0.02320425177907841	0.005156471354836394
0.009834409740906266	0.04589982861724358	0.0253613901215846	-0.009660601467105704
0.00641245712063611	0.04124466738421478	-0.008389696808083779	-0.01111513397937449
0.009865503109878051	0.04458492358348368	-0.02854289997787493	-0.001414306762947141
-0.0082399860907638	0.02703507139523216	-0.01372256449530668	0.004064463853801315
-0.01102544726657696	-0.0373308984330225	-0.0001574012211652211	0.005334138569300644
0.003811314566977982	-0.04686828935112219	-0.005763442102189486	0.004687189869832779
0.004252565316255837	-0.04243310859905997	-0.005414070495283784	0.01833043049497835
-0.0112408177933847	-0.04851849339797892	-0.01617449756570881	0.02437991378196006
-0.02275720072854949	-0.07861751836117066	-0.01999956260818474	0.01387282518682963
-0.03261860290264437	-0.07175516100142851	-0.04816101155469024	0.006013065947286577
-0.03435168448498729	-0.08870207542574257	-0.04643452500839555	0.009042089663206734
-0.01644845755651498	-0.03289507416905238	-0.03544222061996726	0.001848441362918089
0.01053131225351724	-0.03273774968431464	-0.03519221880684668	-0.01059254081112669
0.01327149318923669	-0.07974964099137125	-0.02839453034382887	-0.01256263563481674
-0.02217380504662322	-0.03028316542671873	-0.00749095854185086	-0.000189327682896761
-0.06450071530244231	0.01267709291661261	0.01268428762263453	0.01998990793179967
-0.06023394304489582	0.03944445770582509	0.01894485357398868	0.02381328231295192
-0.02535944201966042	0.09267453679722205	0.006747366530213172	0.03605794784021916
-0.002852648066108955	0.07776533076412598	-0.002475084687394602	0.04845785483813166
0.008339579378132582	0.07116398824687184	-0.02452875674063643	0.009691908032951139
-0.004769351929220846	0.01627586974668162	-0.06047180525039899	-0.01264169056177917
-0.02305111340298627	-0.04682622984395566	-0.06440734777359351	-0.05396462880161933
0.009796749381691314	-0.03406622821399491	0.0414711424353624	-0.06875218374592433
0.02513680596623219	0.005220495781884281	0.1127964560036755	-0.02893488859695951
0.02241057521163398	0.01543937896177096	0.09310964617089203	-0.0298644448663437
0.01448980654807908	0.02129387343394849	0.02994132050430791	-0.0258217649324817
-0.01214286352022039	0.04554294458210271	-0.03608769594553571	-0.02782790920636696
-0.03118399934221132	0.09129440254140565	-0.04944500493765761	-0.01781407680799115
-0.02348114074492022	0.09601250792306126	-0.0820670327809143	-0.003123121169293828
-0.00754175848573245	0.05783155194354769	-0.08050851492488999	0.003959540891166086
-0.003046771160012095	0.01773640239880908	-0.03541941268343951	0.01371521630714003
-0.009620910301082317	0.008875677601133532	0.01851477742150088	-0.01155951474268979
-0.00117223409392828	-0.01643194424048154	0.05542705602578491	-0.01966413697437292
0.005206956039033293	-0.0402885720504413	0.006322412587020919	-0.01298952365762869
0.01892357450774183	-0.07235778544965563	0.01643210551354607	-0.007694289876066024
0.03300204402679303	-0.1025793040734709	0.02600895542738699	-0.002203022875418466
0.02124386028559294	-0.1687802705973979	-0.0001469444943518959	0.005383610287819331
0.01466027501810306	-0.09797930298297595	-0.02211225203857753	0.01699665871833124
0.02327365416032517	0.02549190250843098	-0.02787404655699136	0.02157184585007932
0.02549460363571888	0.06861658973149168	-0.01361232273071679	0.02795946009356261
0.03108900550209617	0.09371738846066083	0.007734207586835264	0.006890530893022512
0.03308584356304035	0.09192398241844052	-0.004044981939021798	-0.01715920440957349
0.01036836793763863	0.02924932185111318	-0.01914832907371012	0.007498020945804759
-0.004768818502647957	0.05512062729487287	0.002149579008739281	0.01875682220793107
-0.01045976313479989	0.03313302640288474	0.006734985202955439	0.004053997900941983
0.009402453771584324	0.02766040718673765	0.01336091596453832	0.01479690815012271
0.01846855398239502	0.04710430316597616	0.005087998334223884	0.02070637221468677
0.0150009707436437	0.01725177585820725	-0.007504369040152449	0.003258079055538299
0.01038928550116318	-0.05026092987464017	0.002676682837790709	-0.001455144582362433
0.005280891344539156	-0.09371849584806417	-0.009102653877644777	-0.007113209794177693
0.01111403634662444	-0.0864431828878349	0.00604369945843053	-0.001414504657625608
0.00706011218762613	-0.06552601063011172	0.02213814101424038	0.002489609159664139
0.01255122034628334	-0.00354332496709123	0.03199987561403115	0.009715170662855831
-0.002047068199356334	0.05661765557502058	0.02616854572090143	0.01410526985501163
-0.02366530699375662	0.07542140869718961	-0.008859054566379237	0.007563963699286937
-0.02603667081147164	0.01068066080490031	-0.0163181432389635	0.00664187011702518
-0.02907382343514634	-0.07988191459725799	0.01021646291524991	0.006656485350663465
-0.02093624990307182	-0.09050427787245519	0.01667230605437297	0.006924465317928055
-0.008725190291716088	-0.05767662498426718	0.02161285199222705	-0.0075250766387793
0.02959878984932604	-0.02709700904786983	0.01040881816280933	-0.01452655534815581
0.04101659038300317	-0.01646129915648734	0.007010141449863959	-0.006659540157136141
0.04341359402244033	-0.03940239912804417	-0.02102670464148667	-0.002082641450205154
0.01918503340944868	0.02260015485030167	-0.01706970697019237	-0.003218005049872954
0.003615933995407158	0.1191163880529153	-0.01620809890052913	-0.001179840236115555
0.007591451576185205	0.1241884371766594	-0.0139412011627487	0.008506840042334844
0.004790599119214421	0.06106232818714383	0.04010722270304831	0.0141356826783944
-0.005833316019011386	0.05393240471962978	0.07227130359494463	0.0110670192799365
-0.000820763532656082	0.085415567327309	0.02373823932978077	0.0152098059056482
-0.01767894059219694	0.01638498892449162	-0.004620154726734001	0.004585413556240596
-0.02566910888595629	-0.0362257854084037	-0.00689866817147369	-0.01648954178252758
-0.01878133526510931	-0.07197045910571383	0.00139772826629731	-0.03476504566925938
-0.01617488622475441	-0.06178726928073492	-0.02295147755938853	-0.02354071416050089
-0.01355605172660596	-0.04963237804146192	-0.01645371577315884	-0.007580216485033615
0.007205360699327553	-0.01952862971597215	0.009443236492159333	0.008982022770427157
0.01112975312714732	0.01549474371808005	-0.02184283657220161	-0.01562312473493711
0.003569842382931031	0.01300725210573055	-0.02155993910202521	-0.006268534916739885
0.01279275991435774	-0.005089628812310163	0.00137392995508765	0.02063949984723121
0.01390171031487117	-0.02054731732684678	0.01391577602380817	0.0361940242080004
-0.003291005771244973	-0.0313380826287671	0.06091091602496267	0.01388965191010197
-0.006769044610650773	-0.037407232430109	0.05774155056734188	-0.0005579792640378082
-0.005334806473951362	-0.03540137626735566	-0.01331136001869667	-0.006238801380772583
-0.01031083778527822	0.02633743175906923	-0.008155366689491513	-0.01609943243277726
0.00714429954588765	0.07405239071892913	-0.01101363440833741	-0.01209320737553898
0.01564669327562849	0.0810765588877332	0.001751907179441942	-0.001254361687112883
0.01089627389467955	0.07427797746524695	0.007355172377625381	0.006431456054419788
-0.01517964151303694	0.0207718913215505	-0.01295882001793356	0.001479102995702721
-0.02599890372969935	-0.02351713366724914	-0.02242845718503036	0.003105851675506187
-0.02061392876154351	-0.02525810759251475	-0.006596831929123045	0.01525164628206087
-0.006513135695986801	-0.003873177031985075	0.003477479192609144	0.004054484094882317
-0.001553919956743341	-0.02145266775158863	0.008105140468430923	-0.01200081353415142
0.001282515371121939	-0.06633612325942417	0.008151017996907733	-0.02021756938588395
-0.02077749270977333	-0.07913708791738451	0.02615105838823267	-0.006833045537950057
-0.02377600877800759	-0.03731490255167422	0.02359238486521624	0.0003762931350544221
-0.009351367607158651	0.008868187555187481	-0.0004851736714644144	0.01307097596184756
0.001570388081748974	0.03020707936500886	-0.009372094570602186	0.002757597484185957
-0.01080784492554369	-0.01071922563395093	-2.737969059074605e-06	0.001787967956607076
-0.01797143744673168	0.04244214409450663	-0.008681266837782158	-0.01323825811276624
0.0006109419558349599	0.0653053247364519	-0.01277107104793177	-0.009645051267819704
0.01023026088653542	0.05344609848500934	0.00271156721654805	0.005570725718085119
0.02399052417390858	-0.02008410800901899	-0.02379707132462859	0.01180448191052863
0.01782927960531383	-0.0513078845715274	-0.02719985199114828	0.01206348107647896
-0.005328056131045629	-0.08213791416854496	-0.02638007297863263	-0.004372764427974374
0.002867159377292159	-0.08730423958948838	-0.01905525823839896	-0.01523262888965293
-0.006634087924827868	-0.06556734348091212	-0.00565815300437417	-0.0007251824300755075
-0.002070489879913595	-0.03467377203214898	0.00101642261060688	0.01382101787975375
0.004625939977940614	-7.852695838318449e-05	-0.01050499555433731	0.01218169386369423
-0.00390721024809016	0.01285780443408405	-0.02244733452920187	0.00926658101889496
-0.01617022538707872	-0.0216728516523023	-0.03955849527488808	0.001839576121741219
-0.005531331066352241	-0.04319777296666976	-0.02984501681452588	0.003007248737972406
0.004133985733115333	-0.02081507638978104	-0.01382953412157386	-0.006850932683620613
0.0009751497691809247	-0.009955862407864609	0.01018428372545688	-0.00372946020850729
-0.0006598700751416466	0.01334635387138637	-0.009825850737389376	-0.008184816862209607
-0.00120132412910811	0.04031445840450002	-0.01898784663278541	-0.006501393573021322
-0.001215156877281211	-0.006896406869912696	-0.02016205184602455	-0.003955085067116187
0.00941096770234527	0.01945044120265241	-0.02174366026478863	-0.01969096507297732
-0.00543279433595317	0.08348455879140958	-0.01170998209564244	-0.02452007599009036
-0.001673286659325306	0.1436660068118693	0.02790600714938954	-0.0179575482643798
0.007416777263169669	0.1245438758268102	0.02828849541719657	0.008893218502602739
-0.008024445136296863	0.04259747599382857	0.03298226967766159	0.003304618707731131
-0.01743480501631114	0.009059888522473514	-0.005654745683485859	-0.01393611022240136
-0.01512966234742743	-0.01861039775354428	0.03510474292932145	-0.009768526556474814
-0.01780675514755476	-0.0582269473315525	0.07443714260839468	-0.005208952955658485
-0.002684303408411746	-0.08434676044934766	0.08685751993026233	0.004388432368738765
0.02371957688164539	-0.05806803650467671	0.0002017654813192525	0.02770016643804035
0.01814850921645177	-0.01886798795722412	-0.04689313200336383	0.02081904514735146
-5.510113320455276e-05	0.0004486094084522188	-0.03529103880308122	0.007668080903702845
-0.008726080795168048	-0.01007458563979012	-0.05492662499219231	0.006774961646864279
-0.009589612295875554	0.02599199979328876	-0.04206923196403993	-0.02140672017671735
-0.00933541128483481	0.077849857119224	-0.01611183576089762	-0.01972699261820032
-0.004534593083975364	0.1049831076159538	0.009267180298772501	-0.003582648910093902
-0.01602120087603702	-0.03414839419404136	0.01689736726957989	0.01717013845750956
-0.01824140336672026	-0.003795377832548425	0.01923765749492085	0.01304684519498113
0.003089245848522921	0.01931449535098743	-0.03430144038161237	-0.008394280594498931
0.01023756206186941	0.01712392731630991	-0.02839308624711784	-0.004969474709127151
0.007619543393363848	-0.05923379528815523	-0.004616003368438361	0.002535819826473688
0.03240626395317409	-0.07480904094185957	0.03906580319635743	-0.01203833059227868
0.04747223210838714	-0.02555450212714359	0.04291823394102882	-8.359093994231898e-06
0.04332285383353125	0.02009940903123984	0.03578777017177771	0.002423590608708326
0.02185927493906786	0.01210171340775169	0.009792384033560178	0.0009211005650438746
0.01781858059396773	0.04781822224580095	-0.005583639554384382	-0.0119641842393568
0.01554087355064522	0.1010611979298534	-0.01181496142286538	-0.004538872060719303
0.01104396944894447	0.07980206304797034	-0.03344030798955627	0.0003605584850475804
0.01199788368038818	0.06123524645230961	-0.0433829453759579	0.007357810602245651
0.01731123551318007	-0.01669591552992338	-0.03965615596824524	0.01932758814055564
0.01401100199202564	-0.05967850193544202	-0.001674087088195136	0.005118544239530072
0.02078548235869499	-0.06180547151095097	0.03250445704565107	0.006575632797191146
0.02232701883456777	-0.0664444349655013	0.05850678913053335	0.003389328934768467
0.03399701665493283	-0.1045544774565241	0.03806999618896195	-0.0120330272623958
0.0352853957771427	-0.2232729229160763	0.02947590530851888	-0.007123561862237462
0.02971340430881412	-0.192495649438751	0.008295351544785128	-0.004960847033046147
0.005650349250001544	-0.03325159486655221	-0.01043676610998947	-0.004597825076681913
-0.01949036660278739	0.09328427035680149	-0.003057715787010437	-0.0002811181019747196
-0.02262721066373179	0.1628608279725985	-0.0003259647664672932	0.004634298157345913
-0.01226144418590814	0.2152918667555007	0.009791739297735415	0.01988751256963623
-0.02998055848979665	0.2184515838791351	0.009019845715603533	0.01780035852881915
-0.05554519369752122	0.1953512770646345	0.001062288663409355	0.02317430885819548
-0.05794423145470418	0.1373218823924971	-0.01745753920888684	0.01959250902087107
-0.03068497539973441	0.02936114022665325	-0.002791532429931475	0.01020733290607308
-0.009953125253171588	0.02424039108262811	0.03452337648943887	0.01087304467870057
-0.01684020771206859	0.0251323111341162	0.03475857099371607	0.005266316064417432
-0.0254302317299962	0.04564723054591684	-0.01131639762009488	-0.004214086353282423
-0.02142383782111233	-0.06679208324414708	-0.02029105922826913	-0.01344289301692786
-0.0177652958530645	-0.1364239748716107	0.01605246543923678	-0.01253078508576277
-0.01693529153414916	-0.1429938847303819	0.02490428077303912	-0.004106830434725158
-0.01363290635344633	-0.1308667644367019	0.01976805579498765	-0.003548172115431502
-0.009324457996450621	-0.08592265014254645	-0.002564676473386806	-0.008356205940299828
-0.009948067539797196	-0.0667265991367466	-0.01941555949280642	-0.007138408432810628
-0.0001612537379125273	-0.05612253919044217	-0.009832129501129104	9.083394754099372e-05
0.01158868789185597	-0.07071626685780402	-0.0157483116562019	0.009961180038273242
0.001996615407218837	-0.08665097224866007	-0.02597231443505423	-0.003749161374982304
0.006728269603375189	-0.05753321262838858	-0.0370607884358695	-0.004715138205431727
-0.004155241819742963	-0.07311896243690127	-0.02843980634644332	0.007317852416960484
-0.006701089968237913	-0.04703045883562577	-0.02022686862361698	0.005325340131029973
-0.006202936508440489	-0.009966572633539911	0.002049266980693887	0.003140686835286809
-0.003722828546242721	0.04773563677529319	0.02129632434417354	-0.01406082488046333
-0.01456977338777079	0.06568113407273186	0.00482928139818162	-0.01800355345407314
-0.0217104839157092	0.05085858087509224	0.0003601784924705323	-0.002009890368253203
0.008397361095084209	0.003984745231136027	-0.01284191952118375	-0.009708084353983853
0.04651738202833234	0.01218654726754295	-0.01310378410112053	-0.008919329031883227
0.04535836562493391	-0.0148187995202181	-0.01040512289201216	0.001466769139559725
0.04514925874838518	-0.07016918548961544	-0.02186065981015393	0.01149702060803158
0.0318747086090484	-0.0462876081709252	-0.0241936434961234	0.006768790564083808
0.04178883580701986	-0.003704474116443772	-0.01276977706589964	0.01295641360547364
0.03294414633054762	0.03638032052530381	0.0337321261850107	0.0221216411303839
0.01535578396454443	0.04311950958732594	0.0407229244668444	0.01424155874509124
-0.01576312183362286	0.01734981159713499	0.04215070813323313	0.005843321072421302
-0.0156148828329146	0.06620925246314067	0.03670796601546036	-0.006183215767080792
-0.0118101090193816	0.07039139429633388	0.01083479880461146	-0.02042857021112123
-0.002827905028166903	0.07884735617663402	0.005082762412030035	-0.01485388994146109
-0.02018316066244366	0.05744476108129483	-0.001419482489390689	0.01022001896815807
-0.01745235124338929	0.01174669197105382	-0.004473580616757459	-0.00363993644793418
-8.586282675959393e-05	-0.02946999975399162	-0.02091314568710369	-0.008207054229077002
0.006655829986642023	-0.05160732289521922	0.04356071681021402	0.005436888621433079
-0.001884319380773357	-0.06319604157330472	0.03669741025227987	-3.592758970194281e-05
-0.01364009913239143	-0.01993027871566717	-0.005253965378453084	-0.004392339846425621
-0.01765129397028433	0.02738359628192267	-0.04340279695872766	-0.02584528950956948
-0.02079858230363231	0.03804556119579473	-0.03537892740123829	-0.01829966090426663
0.002240300141701157	0.02173962383758366	-0.007888034542625676	0.01306802287554826
0.001331559794133125	0.0004440136395391042	-0.02938470377269264	-0.001269466206633295
-0.01374556299200317	0.01330960133674601	-0.02327957677156095	-0.008273092783108319
-0.05873194317891987	0.03830069968176034	0.01772079533491724	-0.0159508914810648
-0.02753067035216817	0.05843547275433431	0.01252251882612676	-0.01525483528582536
-0.02104828987402371	0.04236736968069879	0.01130517812735415	0.003600762385904715
-0.001443620541355544	0.03056404087005722	0.007410877966804372	0.03296637908013653
0.02454167558006656	0.06357689523646408	-0.002867777749913222	0.02256675647669738
0.01293442385663861	-0.0121989855237318	-0.01227407838968089	-0.01151595965053676
0.00468398257931436	-0.0457462281127821	-0.02009575450735837	-0.01624046137288605
-0.003165659505527693	-0.1761288533235194	0.01232995854923455	-0.003203708358891364
0.009484671873862238	-0.2306258429976963	-0.003607786448851646	-0.01889688850085263
0.006484586659243543	-0.151662419493712	-0.02792599422711651	-0.007109775165757574
-0.007162551384658252	-0.0468372915363061	-0.01887524782016541	0.0113509233428398
0.002943639032481376	0.05929434541528516	0.02331116909472183	0.01011919560684381
0.01037712136939489	0.133980676778167	0.02257112070306432	0.02305228245149162
-0.004435138768808126	0.1517233437226984	0.02410540340116877	0.02627909154191712
-0.01458549241964701	0.1236831794156173	-0.01115979101313047	0.01534025855331004
0.0003910505097842743	0.1013348564205134	-0.04423542197574229	-0.01109272236548244
0.01449797529520422	0.06880325181809541	-0.01237441828792758	0.001720540521364814
0.009536038495580783	0.0267058211834349	0.01942360567144279	0.01411425942161064
0.006787635552268733	-0.004011933451495817	-0.01789855681527528	-0.003723001870184279
0.01426465981763397	-0.008501077830565421	-0.0182296681726218	-0.03359581012657815
0.02287898715372909	-0.01789401660487763	-0.005682039693086784	-0.0136363205228218
0.02893525070426888	-0.06995223246534792	0.008623761899535745	-0.006170898818340183
0.03105051548264659	-0.0929167583327014	0.02941546500139978	-0.004730600124622719
0.03585055468379246	-0.06636676943131209	0.01128580016960076	-0.009614324418279259
0.01293974748429359	-0.01594112065746689	-0.005021186949002584	0.004029612715770754
0.01164476099136591	-0.02040849742056613	-0.0030401566702488	0.004440219709706695
0.00450603213225427	-0.02246648586735175	-0.005579493606052627	0.006919304012159913
0.000775794290304267	-0.03352236579925791	-0.005737191357980887	0.003122205567101472
-0.03180534157584508	-0.02229662391535388	-0.007352910524557957	0.01325583205585786
-0.09849786758340486	-0.0612111793305023	-0.01231393628776753	0.006759367307507168
-0.06253528555917225	-0.01100124544308643	-0.0198687878518321	0.0004281438241461678
-0.02877289419091414	0.02742420262412869	-5.816921071529056e-05	0.001072098625455941
0.008730762409055605	0.05571743743331966	-0.01027004539199632	-0.001039079343470226
0.01238130722527262	0.03695891085275968	-0.01234271785334918	-0.00167094759219038
-0.003706747603055632	0.06919024065271802	-0.01472628253118818	0.004691989055217602
-0.01021897640801314	0.07600276286410841	0.006590948992751775	0.01031386301978762
0.006306067911626759	0.04447315288441433	0.03414222219643367	0.02161456786177341
0.02174683296753598	0.07499834683449198	0.05168045632409377	0.02849693851731083
0.02571786133509517	0.105475394080281	0.04082171882858289	0.001806045211500299
0.01883565441814899	0.1070760523189994	0.02099084364910004	-0.0303822128891717
-0.009364696775780165	0.03933731629148374	-0.002240641201853185	-0.04890569119444205
-0.01309960150132304	-0.02999864760346127	-0.003986168246378975	-0.02753823768807397
-0.003132543774347561	-0.08311423505667455	-0.01069169908979306	-0.01172313934916504
0.01319013679742809	-0.1878850990608815	-0.004374562299020744	-0.005821687216287929
0.01891057247175186	-0.171759235191411	-0.01219869205007951	-0.005057949715527674
-0.002109304559382978	-0.08251744815676999	0.01149984858835587	-0.002588280858670788
-0.00933412524848185	-0.0002079227358518326	-0.001326878475903248	-0.01204362782928508
0.008669635945107546	0.08759675264660137	-0.02686790106432681	-0.007196736227426933
-0.0004580762772808821	0.1470356108260567	-0.01713359543313505	-0.0003534950786270628
-0.003405669485886754	0.1338352513993426	-0.0008191913452901772	0.002014608458599902
0.00464614628423642	0.07422030262123842	-0.004871336716626836	0.01930805038811747
0.02026281831616461	-0.03808114016642778	0.006520167473839416	0.01395643796628069
0.002842344498621271	-0.1134066753400738	0.005147380487647845	0.02193928165395596
0.0004466557334987627	-0.06251441250595775	0.002321553860370874	0.02594597381066832
-0.001941641246781459	-0.01725806479494165	-0.02962521255563601	0.01605018871357916
-0.001935600565059893	-0.05257763165969505	-0.0251958038220815	0.001544065613231562
0.001359975575164116	-0.0841014670219698	-0.02821023139400667	-0.004193265173421505
0.0145988590255544	-0.04894371854435469	-0.01766635852648122	-0.007586992607623856
0.02207857560297602	-0.01126460280363958	0.04227425498391359	-0.007892601778048521
0.007320783517330258	-0.04864295619405983	0.023606391501721	-0.01806292247535995
0.008841899087120783	-0.1022717214604692	-0.02338651246855767	-0.008230797983894873
0.008862088668745804	-0.05529909846535451	-0.01735507154903741	0.000513931181119523
-0.002020195147616235	0.01340285877437887	0.000624292560944096	0.01037912482564469
-0.006562451740383961	0.0257560738008738	-0.03846562391303738	0.01227438792511901
-0.01385258391705968	0.0316780756103205	-0.02260772053856146	-0.002335872661390398
-0.01377006340266857	0.02797451271060509	0.07768074621475272	0.005683779432618114
-0.00109691474588878	0.02800447131512419	0.05617531160732582	0.01143298749732495
0.02225484091693411	0.01339324534471815	0.03022725658910417	0.003268585169134731
0.02680372733027386	0.01205272681007945	0.03866528487240254	0.002253842479018566
0.01451513140628454	0.04021727383754908	0.04985204411861056	-0.002946012403467433
-0.00810217554169204	0.04111507475128668	0.02078708568416717	-0.000315419036642877
-0.01395059378433561	0.07688052389210528	0.01027354773518395	0.002102659109428313
-0.006220989656953714	0.1200305956208597	0.03019237635431883	0.01567572201222513
0.00542669685839806	0.06038999390883706	0.04441001459787663	0.02366259515819672
0.01037306884094194	0.02269695877938475	-0.02024925534416994	0.02235411276952208
0.004380317414675775	-0.01101709001759099	-0.005688211550207979	-0.009532420349413729
-0.001910889972694114	0.01354039899983888	0.02054852519661872	-0.01398657808255532
-0.0003914952116324629	0.0361866110623344	0.002841694858127498	-0.0135984312906655
-0.004560047736072945	0.03499369051764116	-0.002013856250935194	-0.005707349771774832
-0.01135815311232863	-0.02576066409042058	0.000725767245492337	0.003302412293957423
-0.02146264944646862	-0.04189539936838035	-0.00976028489454832	0.007809992317639356
-0.02498851256801881	-0.00785321116207317	-0.01318103242179648	0.007796902909668267
-0.02659697523756256	-0.01890353481669598	-0.01164976967897313	-0.002372770873495562
-0.02171468202972454	-0.02919197586364649	-0.01429695458393096	-0.0121343619457915
-0.008165821935878686	-0.04052197452260121	-0.02291806407689633	-0.01241148273650997
0.01490170723967604	-0.03173454260125416	-0.02374875638606538	-0.01088345409564814
0.02451239040359854	-0.01294739723628163	-0.03161669324824127	-0.02025805851563166
0.0260330174925341	-0.01720170271256653	-0.02039275073885835	-0.02134048263879438
0.001545887051486906	-0.01590689442690809	-0.02253014175571526	-0.01378463035031998
-0.01644929762455223	0.002195228915230598	-0.01271699806151688	-0.0008539251392263706
-0.02590991506247203	-0.0004926470348992388	-0.01178546663481516	0.003710310699223154
-0.01316241022121147	0.005622609884352541	-0.01239764121459242	0.001657266201617485
0.007870461418938372	-0.02317232208628731	-0.01799335907302336	0.01466612519587156
0.02039564527960764	-0.02299718878879126	-0.0353919190566097	0.02214489169925455
0.02731593873277096	-0.04082271594472515	-0.0122541473589868	0.009876121869174765
0.02423610758207371	-0.01906310168142777	0.01135742746691373	-0.004712307164602275
0.00167701689710613	-0.02825591791193107	0.009135692122854613	-0.0005437386798625305
-0.004261159058461796	-0.0162740163639436	-0.002262785641842396	-0.001796209361067024
-0.006480832051159828	-0.02029269140078522	0.01259805385147519	0.01340374388894163
-0.009860968163334783	-0.0001144465274481062	-0.0003108423977891878	0.005713636951370208
0.003941811298665601	-0.03220653573161715	0.0007638861499310395	0.0002555815912374384
0.01494905238065941	-0.02106644536705025	-0.01939183684155136	-0.01304212802160499
0.02198727753770552	0.01352903211954986	-0.02179616849895746	-0.01389294829974607
0.01015310579491607	0.04618184471884897	-0.02230844870610409	-0.004850486373617141
0.001278562895290495	0.05124146750972846	-0.007139318250740105	-0.002277808755557393
-0.009261540267824593	0.01992334807224927	0.03724760066605329	-0.0002908312013040199
-0.01064110596935019	-0.06663250279516818	0.06374344675216902	0.006311762632922288
-0.01195049555417382	-0.08704636130111253	0.05421451002925696	0.01641287536496407
-0.02950070145458997	-0.05316616366898935	-0.007516037738241156	-0.01539787032523718
-0.02992181982641876	-0.04279576548693818	-0.01026544337526443	-0.01333961505771633
-0.001188198974816568	-0.007896630704686483	-0.01681253340205273	-0.02144325971862636
-0.01250265324358311	0.02571344056054922	-0.02221961815899479	-0.003650863401523448
-0.02323987969011261	-0.004917086426386294	-0.01840343680233042	0.02526722876327376
0.005435526224460645	0.02135415893147085	-0.007490331004027495	0.01548703784731235
-0.01831629573078158	0.01915137863024424	-0.01073219637343771	-0.005355928415861317
-0.02909111304551106	0.03657584967192869	-0.02975226439239776	-0.01048412331194732
-0.03501001465840122	0.05270564723468809	-0.04572636618756178	0.002981336352107082
-0.03059543638848085	0.1047966564001769	-0.04141138187664335	-0.003904001108052279
-0.02599729953000647	0.08972510554921644	0.03777875474093976	0.001559785009915323
-0.01976097396120527	0.03688857708746861	0.0545217638738052	0.01378715932927048
0.002528007585168887	-0.02845493482085083	0.007649196470441839	-0.009505514392431278
-0.005770113321918095	-0.01622910235302931	0.01816474404756149	-0.009769014924750906
-0.006733336414310905	-0.01396148941025443	0.001754854670413303	-0.002067120016310235
0.001552700795030791	-0.03686538191590812	-0.03521201945401943	0.001030550956220036
-0.001622401741794997	-0.008763012066817337	-0.0280803143315491	0.001875223519491254
0.01196150201040235	-0.02425361722179528	-0.01181710805159141	0.005004801245888212
0.02026314772542779	-0.01120719664046078	-0.002496043956978303	-0.004354091517095099
0.01782018041112029	0.003653821969388002	-0.005694933704840356	-0.005883611758887314
0.01769212340905954	0.02386702318358079	-0.01016058875970099	0.01322520577093075
0.03138226718916131	0.07035702589391732	0.007603770205884608	0.02750612768911371
0.01483114210209601	0.08072616553870934	0.00514778871056244	0.01401879110402124
0.0159139681704945	0.08630467883393553	-0.0303184290105756	-0.003756377635981804
0.01350888414112226	0.01102654548873899	-0.004556209333729513	-0.02027799517350587
0.001133617487317851	-0.01504808592269265	0.01906079726747411	-0.009367178545964862
-0.01209868434641966	-0.0184576702184343	0.03446389625475713	-0.0002975107865458208
-2.657518349179687e-05	-0.04498750396962284	0.05690853670317744	-0.008566388230094934
0.002521246783542172	-0.06093130302710238	0.0413427574672467	-0.02676543892458455
0.00671505745375713	-0.05533426776076239	0.0277689570386346	-0.02061311593641245
-0.01107994597716498	-0.01261247919703592	0.03126663432099255	0.008293466372449244
-0.009859243913565201	0.01324366770718156	0.03898429556690457	0.02054535167709543
0.01418043229211699	0.07941901180781111	0.02551149005909681	-0.002352411551491706
0.02162278160231474	0.1318824367518636	0.002101581101695354	-0.007261913238124659
0.01212935366494184	0.1202808135356772	-0.01740431803873219	-0.002568260442733387
0.0001470830015626895	0.05760309914196084	-0.0188156582136198	0.001303406756512539
0.007151154905116434	0.04539409849240416	-0.00911626113630014	0.009043881459379391
0.01939394265227469	0.03640497992819788	-0.001696002591102658	0.009863127382101516
0.03005584234682211	-0.008405946555475448	-0.003082826388519428	0.02054714123972904
0.04090570835312791	-0.03606957495585827	0.05922351765167751	0.005895251574807898
0.03282319168478677	-0.06522827615622766	0.05312497631750429	0.002793456998503301
0.0307317880898452	-0.06449205362456566	0.00846849742603361	-0.004345327871189506
0.01308679397683773	-0.0535754252763232	0.008879240374474953	-0.01087703189629472
-0.01092284989155842	-0.04079505602392126	0.0003036088024020479	-0.006222596951278423
-0.003698389163140242	-0.03668615407154199	-0.005337258153079462	-0.01621598071722945
-0.02469530716535815	-0.005029021417949826	-0.01030852305615622	0.001657803902809826
-0.009141271998922633	0.006889713340344886	-0.003604247714666245	0.01471480640908064
0.01023612488064509	-0.005366504732000216	-0.01391317018916291	0.01890466365653887
0.01480644738905156	-0.01177865978503919	-0.01198989634838919	0.01718025686515959
0.02841934583151116	-0.01574384187732494	0.01238817360114923	0.008649710106145776
0.01296510916043626	-0.02359975404282586	-0.01368071907902993	0.004167940670412904
-0.000271352212792624	-0.04305146378599368	-0.02156536930426433	0.008047824804702215
-0.005594646954418998	-0.05084101169297895	-0.02137694550897887	0.01186922467889279
-0.006410062944136093	-0.08406749055996303	-0.01631984054746916	0.007930836341592445
0.006502042011987386	-0.13093408474683	-0.00900835745921481	0.01211765374583198
0.006910885934616079	-0.08276115011829516	-0.01559336210295763	0.007050044463517185
0.02241704506866903	-0.001319979742544347	0.003657897434903618	0.008878020362280723
0.011699168254929	-0.08556396323271109	0.01828607835851183	0.01080831318622613
-0.01648412092161952	-0.08657254244422791	-0.00147336801731566	-0.005165234870628164
-0.03423703055052686	0.03589143398488907	-0.01394018007301563	-0.01597197122352878
-0.0254322765290299	0.06736389457323136	-0.02883230161056627	-0.01822783853076095
-0.02019484423206223	0.08172981919536858	-0.04172740036749448	-0.01160687865072182
-0.01606273756637769	0.0577707452095802	-0.04473986213048962	-0.0104690189016563
-0.01152575471378116	0.105316250400889	0.0111740409383761	-0.009737284077972525
-0.01911206474271342	0.1268076268776238	0.03170395070955933	-0.002063577717230502
-0.005826306994852565	0.08371920034949287	0.002495808313359638	-0.000736083582868979
-0.008381329747289857	0.01169145990895117	-0.00426506643802739	-0.01100027293002895
0.007713608639547793	-0.05060799576114317	0.01611660893274737	-0.01203251050039907
0.002636935340698788	-0.11933207784868	-0.01451100578875535	-0.02300825769491831
-0.005351675238953781	-0.1772978903711636	-0.05830945311456376	-0.002524755386424134
-0.00749949600567274	-0.1115253660068446	-0.0472372356422783	0.001578142433851207
-0.01113295881101967	-0.02906278865680925	-0.0647313410824662	0.02078926751396786
-0.007847942152254161	-0.004813197840189449	-0.05471548994995067	0.01129651208124167
0.01210542427049163	0.0603341229646554	-0.0256398416683708	0.009094433661453937
-0.001103397972743585	0.09664607307194516	0.07333302333131343	-0.007394407950544275
-0.03742153487370507	0.1812601234375784	0.05435030090723432	-0.02324515738966922
-0.03914076506305175	0.1731723050722258	0.01812683929999674	-0.03360310089471262
-0.03226584958108279	0.03718457083794739	0.01191241606021904	-0.02576785062251783
-0.01031904284804217	-0.009865912574531718	-0.008449126042027312	-0.01480523414203242
-0.0071318036944699	-0.03615969381133822	-0.0003406869472607411	-0.01284253495493505
0.004146146706880018	-0.01631223684032587	0.01305583339845289	0.005422385269477936
-0.0005781660415551474	-0.01170768165937272	0.02784669935940831	0.01398003833087027
0.01024795742528168	-0.01566190137139582	0.02925226686881739	0.02385675570311311
0.009053142187719821	-0.002093276121551802	0.01425446468306354	0.01973966287105395
0.002502650014118544	-0.01243855239454	-0.01227575538585638	0.003587838560288005
0.008986640059430277	-0.005444562236320297	-0.02565109545031208	-0.0180243057004501
0.01984563333193669	-0.0364998507059759	-0.01432874039605261	-0.008888739131763542
0.02939190560849746	-0.0408525197027074	-0.01385633826013032	-0.004650502631919223
0.0266932714381914	-0.06610790319190545	0.008113252444316512	-0.002007607110861288
0.01367418394810144	-0.09423120742960529	0.04058857088453099	-0.004526847410263393
0.01562331461717938	-0.09502058393465246	0.01993780778404212	0.0001039491000470843
0.006188693763263074	-0.07854152325707373	-0.00654603540665187	-0.008476532533719322
-0.01420936754239607	-0.06052767517858881	-0.02307544305885479	0.002647166403472801
-0.02879236200164861	-0.0247211012702987	0.008812212491337124	0.02397903485257096
-0.02296484882187338	0.02509570914534217	0.02646199974029216	0.0273559233350336
-0.004245573859217115	0.0551759770831706	0.02187287529551949	0.01596463025161848
-0.007387689227870051	0.06845666524987493	-0.004194877447682527	0.01373936794432473
-0.03992493858558389	0.1016145737257031	-0.01949656138702904	-0.00294565209566067
-0.02364686941131103	0.110675195928892	-0.01043776491034364	0.006759375013944483
0.0004148365962817364	0.1064040555772451	0.01309808416264673	0.01797706544012584
-0.003251481684838477	0.05999687884462358	-0.00326978929668153	0.01474276299460258
-0.02605120374874909	0.04488220124378136	0.007688192522297215	0.009633864278161231
-0.03547872424265528	0.03128239556228489	-0.006528490143144028	-0.003837493453783517
-0.02119618790030792	0.04604203606913635	-0.009510276242546994	-0.006725734164979847
0.006277438063272275	0.04740994614176453	0.009574006924297853	0.004381229703961305
0.01322573493224295	0.03412162580681653	0.02144003490437783	0.004701700289798934
0.005270388466795587	0.01421333813833701	0.025142690968757	0.0007644561800598564
0.01244125118446147	6.46698057941766e-05	0.0172946738640116	-0.005793941755995508
0.01211467302812913	-0.06586838008088174	-0.01277495031282353	-0.01218337632408267
-0.004827125256617774	-0.07448484907238605	-0.02911308106922514	-0.01622530402652539
-0.008973878859358009	-0.04511480454086312	-0.02822374438209165	-0.004966437580090012
-0.00132075545392041	-0.05526242268595635	-0.03150046319217929	0.002142499356171852
-0.004983445684708485	-0.0723298148800649	-0.03427855896030797	0.01730816851323234
0.01629269424505311	-0.05502541409767248	-0.01748444006972597	0.01459657707271262
0.03359715353845008	-0.07361142566744711	-0.01547122196939257	0.0247493831589081
0.0257109367018922	-0.06965761944496841	-0.001624570735415072	0.01715696048616639
0.03310296930326718	-0.05179714713012149	0.01568078715662386	0.0003085027662732214
0.03231764658330573	-0.01747674764703446	0.08367826009907509	-0.01451597932976873
0.0221777620517055	0.03156340967023309	0.1016579695007852	6.663749888897473e-05
-0.008615846767970937	0.1269521966810196	0.08899298634395428	-0.01322895786247592
-0.005595613623559982	0.1001296725786819	0.03071402018978951	-0.03215024713277333
-0.002141380936001903	0.0443673973514522	0.006538366775268418	-0.0405468909446887
0.001092626396292012	0.01759573969107762	-0.008740539172406905	-0.03986732331607195
0.003065529556276856	-0.05002429433946667	-0.04548494913646726	-0.005206276328722167
0.002274114029475123	-0.039665226521188	-0.06954144447298689	0.0103338535747526
0.005692416312188349	0.04550126502469674	-0.08561828249191876	0.001936692567722222
0.01601018337032648	0.07132501131570815	-0.08078647974441763	0.003582820734024618
0.01924220740382042	0.05036770309136712	-0.04992445081333655	0.008520112067089235
0.02957038755983296	0.1212777782376968	0.01445102322704854	0.00486785400362993
0.01583901615452533	0.1717172762098634	0.06589545008758101	0.001429619714463082
0.005255480892220894	0.05057364704786244	0.02259506457476699	-0.01499552957634795
0.002634276222191192	-0.0286155220592054	0.03544897175177655	-0.002966501786869139
0.007706491480339864	-0.05086306439659685	0.06213808221616805	0.01335169043432938
0.01980505223978167	-0.05826010873943865	0.04345318626295802	0.01462587228707593
0.007519898232986437	-0.07072307124758354	0.01373128297184772	-0.00513169494471726
0.00466022466746053	-0.0497540628932648	0.006744978778105126	-0.003380552467965643
-0.0009796749774137682	-0.04508080315986263	0.0008372912486857113	-0.01203912862365394
-0.0004299545385359585	-0.02967484765511256	-0.00472624577987025	-0.0120724497619775
-0.001033555045875304	-0.05112846817266944	0.0003585445713134247	-0.0007468817258530572
0.01125986462457934	-0.05302489787643543	-0.02327456282262753	-0.003729792670160019
0.009879845840732805	-0.07141114381031587	-0.02589416967660141	0.004401616939982174
0.016241964144897	-0.06626449842014848	-0.008421448051797079	0.004348957734947082
0.01253477050151909	-0.05122406527626865	0.01304094061402856	0.0127477300148351
-0.005359675658541512	-0.02937105946269577	0.02984916332353054	0.01863657335227976
-0.01288366263367919	0.005026412116178851	0.02013677978258822	0.02922510072816227
-0.0145879143763144	0.03483607278758628	0.005454655661100111	0.0254035523527244
-0.004438141010931059	0.04702463939269244	-0.03498380933782324	0.01085758179769317
0.004796774862245919	-0.02529775523673375	-0.09324875594666771	-0.001603968631822318
0.01792327906316203	-0.122022243872695	-0.08995283567001033	-0.01140782619425064
0.007331098795812295	-0.08836983752630981	-0.05279946959999277	-0.006522646617188313
-0.0006880658207787953	-0.04237065973886023	-0.03808323313005237	0.002617273669909142
-0.02478136381793112	0.05978405306241275	-0.01461734513114583	-0.002052304041040346
-0.01806614275307397	0.09612010187197571	0.03781050610165117	0.009280893541043242
-0.02339282661226127	0.118363919221684	0.02560867104093556	0.0008288205758023514
-0.0479190312911364	0.128339607158218	0.00683247954252275	-0.01233769670539828
-0.04849781121763753	0.09503626183753214	-0.009714483806394088	-0.009066265002204678
-0.04733137692206058	0.05657000603071778	-0.01479027781191629	-0.01781838599420533
-0.02400076191778709	0.05155881207329546	0.01723756635229966	-0.01648719231334255
-0.01075646637069	0.01773015832052541	0.02814816450916849	-0.01229990891239769
-0.00452050587843441	-0.07366823888518337	0.01265165210293448	-0.006105919047054604
-0.01046137829783667	-0.07077044847415812	0.002583217396358324	0.0008649609564457044
0.002499605107041361	-0.06955811926702868	0.00493958429774596	0.007939463280523995
0.008921016992225873	-0.09324239043307227	0.008308597854064657	0.006322480714457459
-0.004690588123260726	-0.08765585872844434	0.01230288316081412	-0.003752738621507027
-0.01730887587122455	-0.0698311486988883	0.0447731405082446	-0.003205909815361991
-0.01280811092755829	-0.02558030948976003	0.03739737932421706	-0.003460534141712136
0.004330201090029091	0.05851859255967656	0.02178506037102706	-0.0004642416807396177
0.02063171077036527	0.03725029543726095	0.0202600301451685	-0.001738529335120159
0.00213996675052122	0.009483376375588068	0.0331061996449083	0.005634929100141222
0.004411055364372705	0.02605778828068209	0.02352958211021325	0.01601338839275505
0.00544003373049806	0.05248393656118527	-0.03115768985285116	0.01424982337194057
