0.0009645968555602359	0.03789263488587592	0.05813105059717037	-0.0126746539729334
0.005001393440516661	-0.008611698364751386	0.06084475393530905	-0.007175475226278019
-0.001599809362382312	-0.01843619337669295	-0.00473691698621223	0.01484256794683969
0.0002828870422879121	-0.009763701652275861	-0.05594772966426803	-0.009328448434513328
-0.001182409410899331	-0.01162335038514382	-0.06870764959529053	-0.01746133946733474
-0.006316137396930273	-0.003572542162027764	-0.07610767388321214	0.05069126048854073
0.003140777963896947	-0.006421460686242116	-0.06194494948229588	0.1280263356398804
0.004651092618414325	-0.03614095869621193	-0.01018058515653342	0.05649905898121145
0.001794889359295537	-0.03963207001185513	0.01262318317850937	-0.001314371314696983
0.001198887813482785	-0.01841252533671378	0.1515204949330354	-0.04462449868070417
0.001946102961962849	0.01036537880809655	0.1501267064873814	-0.07896034702087454
0.008130342725114821	0.02521260456325194	0.1343467884204351	-0.0894676828729868
0.004929266876142244	-0.000363850710250848	0.09053970415892619	-0.05777070451031143
-0.008674495980861591	0.005715989847138421	0.06304289396428488	-0.02519132447371318
0.000384437520481931	0.01585434092199162	0.0466257405569774	-0.01888446773926736
0.01468148959659138	0.005696422242705801	-0.03441480583642064	0.0004796907274165416
0.01235704729433902	-0.02195381569913516	-0.07328380248863016	0.006654682005593933
0.004318582022822092	-0.05229203538588752	-0.02621418812135895	0.01849170506599932
0.008270846462563397	-0.0756046510043014	0.1039235829039928	0.009186753461895108
-0.01004940084455198	-0.07128152362771192	0.09461469508727395	-0.004635677701255756
-0.02919345967344674	-0.07020417023502097	0.04093905646574711	-0.01649462459809379
-0.01899268546562221	-0.04636165566691575	0.0264699299095072	0.00301067795837433
-0.009117483585190106	0.02069697754224674	-0.01826021901906684	-0.02534857138295083
-0.008629662731501057	0.07944602989648751	-0.004239273319660815	-0.02329692544878548
-0.01437509658764142	0.08961918770326491	-0.02101457093423969	-0.02573679266070391
-0.01672338353758088	0.08062412359605062	-0.03119371759775726	-0.04133450801430427
-0.001018541471741077	0.08875780027036517	-0.02142558407704373	-0.03639456137793565
-0.002255512002716824	0.07726597598071455	-0.02811909587821508	0.03014029464136313
-0.01046788185584001	0.03433469400911811	-0.05096989605716057	0.08728135426068336
-0.01903811509071227	-0.003691439201216413	-0.03880653506454627	0.1206632319758962
-0.008769417462272968	-0.005513923903894517	-0.0185985133876125	0.05662164253915635
-0.003347619966044764	-0.002983023515455745	-0.03577075330876978	0.0316752101144727
-0.003663869391541528	-0.02195515588888381	-0.002132587825743045	0.02237610682656689
-0.007525169744782663	-0.03448867818317756	0.05146812524444334	0.009733417287500025
4.290096677378483e-05	-0.04161496952804635	0.01810884799132415	0.01297559283396334
0.003884051743881387	-0.04031048129125041	0.01792513362452231	0.02576650380581208
-0.001729282553412241	-0.04680707261755009	-0.04578801888941701	0.01038650460982607
-0.003326169427502943	-0.05019458062141476	-0.07518867578991584	0.001820010707907819
0.002282830852541801	-0.03101953762884887	-0.05419236640140085	0.01197021038483107
0.01377494181260373	0.0006596311507138005	-0.03524671874683959	0.03114917243899698
0.02388240513844265	0.01140439628812384	-0.06258698767552938	-0.04763763292033347
0.02489079490475065	0.006273138096089874	-0.07064646385734158	-0.05816273301932273
0.004509984609687433	-0.02433160677366149	-0.0572545661028099	-0.0350087254948654
-0.001457816312961409	-0.03496746039645747	-0.03445025485635166	-0.01521541486846144
-0.01064247368805571	-0.04950478981005774	0.02657653840992272	-0.002293660321521358
-0.009296405390385232	-0.06312715009516912	0.0985717773179203	0.00899625412167006
-0.001306935274808169	-0.04715183141822859	0.07072728680745385	0.008658540242983067
0.004356535272221249	-0.02284053437625515	-0.01732451561751184	-0.002907389147472855
0.006032679193906239	0.07144753284330939	-0.01288186527195312	-0.0146179828138971
-0.001325006325190594	0.08636394870373489	0.005996063513227405	-0.01824264776289572
-0.01061550570322282	0.1087574107343115	-0.02984954989886298	-0.001159226282327289
-0.01130751066376345	0.08221473489615264	-0.05980885427116471	0.01185987711621934
-5.348282242719602e-05	0.05926174226569194	-0.06314872993089299	0.01878180789744322
-0.0002291960695242059	0.04611294356695169	-0.0446703006476048	0.005114199137315604
-0.01625415508522249	0.02413643405918923	0.04177190438743806	0.01067421056249882
-0.02712695408665509	-0.004265165646286036	0.1147069061502943	0.004555388786190161
-0.01870632186323535	-0.01872557718159412	0.03964827046085227	0.00736425965204555
-0.01215844606809541	-0.02101374042827089	0.01764229552764474	-0.02315874058432364
0.003107907476753648	-0.03481071842221306	0.01249164166465071	-0.03524433855306296
0.003732909947679627	-0.03042843024633643	0.07641124537971913	-0.00152707431734455
0.01046042978796148	-0.03074938653036642	-0.009655821950003888	0.01571805247180812
0.01737307090720011	-0.0181489957818061	-0.08552116619221325	-0.009738614323675942
0.0159421660317587	-0.01704372275286382	-0.05288954723577157	-0.01625649916664808
0.01823665323912615	0.01553258686570493	-0.06848512632384024	-0.01316255547540103
0.01116595887952414	0.002945994915158418	-0.04215351050820738	-0.005879492951001957
0.005644605060868925	0.003563165256276285	0.1818809319167814	-0.009883546329522951
0.008141697079678109	0.007361051096624676	0.1012263504266975	-0.02795765391333122
0.0135289174830155	0.0001262680222016049	0.03337804020091313	0.01993759644601005
0.009356852885202311	-0.00260992078520498	0.0280878463048392	0.05428239062983331
-0.0004248823501490667	-0.002104582565488069	0.03865139778254379	0.02626044208280273
-0.005721976104453903	-0.009707610155939402	0.01593179863880977	0.01030067657023154
-0.003367597579186167	0.007116138342916359	-0.02721900038408117	0.0590765752024555
0.0007025543368715307	-0.005026528463180194	-0.03231555498678302	-0.04938536411121128
-0.00298306224330497	-0.005698911153760961	-0.03518281906373284	-0.09286468143997506
0.00418472761220256	0.05116583993921929	-0.04529506909388956	-0.08734070290006563
0.0002054233764874098	0.06684878260730664	-0.06691705232461632	-0.04105225849546795
0.008818926028184113	0.03751968945457185	-0.06405033786988519	-0.01185619898322277
0.003229767547389861	-0.00734088663725027	0.02231203103892261	0.01614079973639623
0.001959237653121576	-0.01669334088957735	0.001230633806178854	0.0002849864434772533
0.003471777770819226	-0.008344768871842269	0.01743969337027332	-0.003915818799679917
0.003581423001698052	-0.003297410848196417	-0.008324190088269338	0.009648067568883577
-0.007319236999888975	-0.0183081008371809	0.03102842801504882	0.0004290766674660874
-0.01116523971941521	-0.01678210949802998	0.05549149934009528	0.06154469448225604
-0.0001463309056535026	-0.006829830530724286	0.0584987213859587	0.08911633524908609
0.006958678210858938	-0.0140652480225877	0.05944213144331206	0.01488723905280167
0.004202165641464729	-0.01242015046708317	0.04865742946977096	-0.01043294900693369
0.01265954853606075	0.005169504872937431	-0.002029411126812109	-0.009967910929948488
0.01271129491774442	0.006833876052075263	-0.02332388446238532	-0.04323587932379565
0.01003394434806967	0.009773163325579749	0.008425412236568253	-0.002460049347579262
0.006757541125498637	0.001741197400540227	-0.007830798562497293	0.005998029662028738
0.00265485841512542	-0.004708230006051646	-0.04806899790096772	0.005699942258189608
0.0001271811866460487	-0.006635845512545152	-0.06236028315099379	-0.004451103283738463
-0.002066065720295769	-0.006347643717762773	-0.04912887278659708	0.006288002687643035
0.0005546616111719421	-0.001402797690652747	-0.01300850679572525	0.04281024819846149
0.009992833995473282	0.004608816833158424	-0.01132946501368418	0.01634602649064139
0.007697181132074273	0.001909443457637757	0.00364536376720999	0.002592248714779675
0.0009169993617133788	0.0002737328732900623	0.02424514675499718	0.007761612686461988
-0.008004172862464029	-0.003853016091913286	-0.00383307202731468	-0.001761184349775829
-0.01932689822712462	-0.01907134563577766	-0.002711036790083069	-0.006969786180642618
-0.01282140368121101	-0.03689646037263421	0.004779142989461601	-0.02890931744152053
-0.009034465118276814	-0.0429502830343421	0.007832778691759322	-0.01234671110022153
0.0007359222994207104	-0.0266986227114116	0.05387793885560483	0.01101328893966958
-0.003330073615312012	-0.01128042935425843	0.0317712737086706	0.01909335703242144
-0.01804616928624657	-0.01614346112858747	0.005391955438494034	0.007603475216122905
-0.02321313084118289	-0.03725990243287105	-0.02390497179496827	0.008508741862068176
-0.007080366634619913	-0.05546128008564841	-0.08153278998563236	-0.01081391499153157
0.006206945556433116	-0.01363021889886499	-0.07594478822079492	-0.006173980169711882
0.001975170672948413	0.01324207732179068	-0.08801853949920878	0.005168799585176307
0.008618096211350675	0.01764676783649088	-0.08502466762282127	0.03951299682369203
0.005637105074797332	0.008880032346592685	0.02291294210525401	0.07674207579301111
0.01201438281467374	0.06609314353805629	0.08726789299316629	0.03827429294259734
0.01587081165902639	0.06639957320474266	0.01943682933376935	-0.004504195191260276
0.02192855719707797	0.03057007543579886	-0.02106618921395132	-0.02993301497457702
0.01578621566167941	-0.007187250569199111	-0.01181352806550595	-0.05485105730010818
0.01300949439854441	-0.01889117328963442	0.06706464317963057	-0.03727597499295574
0.005719179680384098	-0.006857230703856286	0.06903409482957992	-0.007751957222778283
0.01057348818859399	-0.008701626876755891	0.03548419717467136	0.008522827990671129
0.0132691940922227	-0.006499575947892151	0.01487788208878966	-0.0008582325535930337
-0.006264099862496383	-0.01589943008758694	0.0003507357249341957	0.002297663750859619
-0.024598040928377	0.01547250706362509	0.04564862993914187	0.02681588576920038
-0.03781120784247775	0.03575869669135789	0.04352050279140317	0.0191698641700794
-0.04656626823843357	0.01888180974207443	-0.03701020944686155	-0.01111299731690441
-0.06234695275879037	-0.00218014175294765	-0.01830765189129966	-0.01292344985901924
-0.05645030127915847	-0.002701056399271361	0.02478336892431278	-0.01766751459045334
-0.03514176310014951	0.0002483066913109156	0.01145801878722928	-0.02776468519871044
-0.02563147840975959	0.01478415417064856	-0.01064008340480846	-0.02144782685448875
-0.01702512816166394	0.03587150879788912	-0.01531001689205039	-0.007863316802562123
-0.02099589189676491	0.03176237131466154	-0.03085518099735877	-0.01432403667492846
-0.01323250962198147	-0.01316098142314591	-0.03185482201795282	-0.02406391649459195
0.006365311797479043	-0.01123426893197727	-0.05694104592109112	-0.01589684048005139
0.01972226148576016	0.003923226217761503	-0.03738201580251129	0.0411287478794089
0.01755815200364182	-0.007226502784289533	0.01689245301022219	0.03602347052619094
0.01733249606921274	-0.01769772750269399	0.05072666543277853	0.04164896228906332
0.02199694274914559	-0.01827349993539018	0.0385060158381527	0.06644139462920444
0.02341708699875494	-0.02277670454683055	0.0307272811286274	0.1279311643418605
0.02083036455332256	0.001193831651158947	0.003496349963923499	0.05892003362539494
0.02381517667324531	0.006318226586111213	-0.0130760682675409	-0.03107351015620245
0.01728043532031048	0.01459634092611864	0.003381847730327479	-0.09584293502227521
0.01508266489924794	0.01355772873077914	0.009538158126597848	-0.1231619688174829
0.01137341198992893	0.004650342706349822	-0.04474897689111009	-0.1495301114925457
0.00106134423133377	-0.02468813805404777	-0.02625873338708845	-0.08073147775731686
0.001024113178329833	-0.009749972778535426	-0.01516836302384602	-0.04833145256695027
0.006935778297044523	0.005768067450595133	-0.01986323833370872	-0.03542225884854416
0.01173590688780628	-0.0009527428830369421	-0.0347279745680641	-0.01838035743458785
0.0211002196518443	0.01777639842457409	-0.01848840676020208	-0.01500273614228595
0.02420645813595114	0.02269723258787264	-0.02043433067034538	-0.008163611840732195
0.02109804158010553	0.0102294818680611	-0.06178493177875396	0.04489497289076966
0.01517995626875412	-0.01395127839888969	-0.01002051480231932	0.1377063945409447
0.004875312855424803	-0.01693743483776634	0.03191844581281963	0.07500004129008669
0.005751809761764677	-0.01215845455151996	0.003498148206153507	0.01244880247350732
0.01775492197360614	0.005051221222708621	0.02423102910964733	-0.01488179605770686
0.01433874307532055	0.01315084794659721	0.04006451272740882	-0.0477482993358065
0.01470550670007205	0.00188282940599458	0.01169402851752541	-0.01813466483073798
0.008609522498585013	-0.005095103825123902	0.04434172365908406	-0.03930829298383692
-0.0009379733148563554	-0.007847519410436243	0.04371331247038551	-0.04461580336948149
-0.02405834847727653	-0.01747992782202944	-0.06207631050550248	-0.01715815756869313
-0.01868260088408126	-0.0007090575882713251	-0.04541015853420959	0.01611267652271887
0.0006487685250045707	0.007906672884177002	0.01824913438148645	0.04679548605254625
0.0004002553875970869	-0.004651138290545233	0.1621123030719404	0.03140732337095463
-0.02034440761911395	-0.01722209538172641	0.1421563720813296	0.01701983020748564
-0.02065157035935518	0.00193351222089254	0.04982445614696692	0.02346270881751883
-0.007211270858315434	0.03849429959353054	-0.01827712514682288	0.01675633835160309
-0.01013847877567871	0.02868919796903659	-0.04204962548163336	0.05030262253057962
-0.004262539751247868	0.007762987511095346	-0.0677816855524243	0.03026656512557493
-0.003957602038677462	-0.0273473779072729	-0.09175698544949183	-0.005806517337087876
-0.0005422851436482282	-0.05109342472857908	0.0132126170508702	-0.01393301965469624
0.003363817629141985	-0.05556364056264412	0.06576171968324379	0.00512280648109211
-0.00813971480083229	-0.058418630929284	0.005274595928914799	0.00779081822241077
-0.007677645353339028	-0.0356544404524136	-0.04055102143019488	0.01137701401831578
0.003920058247832063	0.01881572656000106	-0.07949195337076122	-0.003297043640990603
0.01316911102883512	0.06859787111948396	-0.07370287116838906	0.01014099676276696
0.004291817529501519	0.08184400249731917	-0.01957584037790289	0.0121327701551511
-0.0001751577168609797	0.0594565627383711	-0.0130780609806777	0.01463152764907824
-0.005677276539395842	0.002800665734431897	-0.05533733053275725	0.01398802702495397
-0.006559753029669764	-0.007663779584426256	-0.05541437658521694	0.01199130840282248
-0.002115809973044089	-0.0113782197632202	0.04189344270493638	0.002148828626584828
-0.003837361362164043	-0.01023350936289534	0.09081053610905997	0.008118999617503821
0.006534624372959031	-0.005847428755103489	0.05743121179742647	0.00207255871788603
-0.004666796203196271	0.009001207963227228	0.0425140843072603	-0.01853387231648338
0.002111416421995697	0.005776485769541095	0.07630899022671635	-0.0136682003319377
0.01208182789523051	-0.01165888922914794	0.08000336967489631	0.002344695717245048
0.007544889796584775	-0.03717828041405913	0.01484424950228716	-0.001767974546306161
0.01343857202544276	-0.05339688436664546	-0.0275838343769034	0.01627513289420363
0.01187293813143748	-0.05083937463290782	-0.02329172168060778	0.026344035425641
-0.003418904887732147	-0.05327525286310746	-0.04145063626295774	0.02912915510186145
0.004744583931642962	-0.02321947337580852	-0.09077830126018922	0.02114586268653516
0.008220955332503338	0.03269631271893784	-0.01744547515081895	0.01591039362799859
-0.0006052317247350269	0.07869984717576065	0.02716318574438144	0.01381534269202402
-0.01462599557249382	0.05268825741678684	0.0145660507212166	-0.01167208390147207
-0.01787168745446972	0.009674139571638029	0.008528255503556239	0.01477337808656713
-0.02203995102901944	-0.01172614488173084	0.01253540485008178	0.05937701533628587
-0.02453085948215431	-0.01505540646497218	-0.004559676107172339	-0.06096080135745513
-0.02086526733522817	-0.01097962873593829	-0.04439110306145148	-0.09852992968603431
-0.01980217511553426	-0.009275449041975966	-0.05771143242555925	-0.06513833732982093
-0.01717752284825946	-0.01280461772910981	-0.03696831868061039	-0.07618605777025911
-0.01537916789975805	-0.01166746710103047	-0.01706746106674849	-0.06050386221478538
-0.005810617279563545	0.003474603744927468	0.01349954848150639	-0.0235613466348599
-0.007813801242213718	0.008794108848380141	0.01439956652377032	-0.0108713768450856
-0.01768170954215143	0.008734720562053537	-0.02361124774192931	-0.0009810297510014221
-0.01488817475549858	0.03887736883549566	-0.05881043701302462	0.03062538886104913
-0.01024941660194186	0.04511266065093132	-0.03408827160155282	0.04687891291786863
-0.002281663550633415	0.04438980870415164	-0.03721153926900865	0.02631626922739356
-0.0001900931591746337	0.03174200774144369	0.0136951933716771	0.0212747237972752
0.007437164993664547	0.01846391541129513	0.1088192975246305	0.003364731233862139
0.006694267923987448	-0.006650628436545958	0.051893059230996	-0.02778991759047686
0.01121112076848231	-0.01169940536579464	-0.06919728336241558	-0.03698356185898615
0.01091606360931524	0.003647191898466131	-0.06638263814054933	-0.03784263317137035
0.002850277504401196	-0.03596620472327924	-0.04945779447049669	-0.007673830935145898
0.00832947362312861	-0.008402126158794161	0.07786043669603909	0.0455702598042226
0.01676322187090875	-0.03506326628031598	0.1275482792135259	0.03910995762295872
0.02438146103362388	-0.03981950342302164	0.07312867049279878	0.03088664357800278
0.0207380734552809	-0.01477178698847948	0.02702053772724035	0.03475435249811924
-0.002818639713924936	0.02017985389440764	-0.05312676915507496	-0.03778385317721349
0.01279860006964	-0.007525062282940527	-0.03843451166020184	-0.07831962621536089
0.01274947658909376	0.008708453837033218	-0.03458584471455433	-0.06806432248163412
0.009761867050539545	0.06537612198144718	0.06237786027503324	-0.05783444552171606
0.008347579009961794	0.04495694755498089	0.0935040332185838	-0.002722984989203286
0.007848873673833894	0.02376887648471756	0.05527698257923144	0.02517784989375327
0.006980672124417852	0.02392274667965891	0.01330990959732215	0.07266692376255346
0.01312364805923286	0.04638804627377566	-0.009978198831896651	0.02928528813597135
0.008438491714973935	0.02618143483080583	0.003893951693977942	0.0008107915264879608
0.001317721023831033	0.01113350782083554	0.005529342925045094	0.002929207620158564
0.003739685913523764	-0.01204653052872807	0.01047284249776819	0.005649190936208677
0.003744331402553125	-0.02467401882765987	-0.003209003125983525	0.007448001999242004
0.01356001186443905	-0.0382821041955692	-0.0357416349843119	0.01426512378769481
0.008714262099089242	-0.02050072598515718	-0.02269709749124106	0.05058031613136781
0.01284540895489816	-0.01923530794477315	-0.02360312443125488	0.02157751755068416
0.001749807327589718	-0.02540864053342505	-0.02195141924021814	0.01561914738650864
-0.006281639379799588	-0.02978718918118275	0.007235261291242341	0.01784413495633345
-0.003909474890955413	-0.02843746370708279	0.02615073723034943	0.03673796523875494
0.006571553727905622	-0.02689469629284114	-0.0009525452996594025	0.01221719431076671
-0.00113278173716154	-0.02543034071237371	-0.04519971301757459	-0.02082549523193316
0.001151841517364525	-0.0231882666833143	-0.0412548242889879	-0.007283477373903734
0.0008884019149715272	0.004731314207283672	-0.04799074623077474	-0.003690838736068087
0.003045668021166301	0.007784937279121807	-0.009952846646125153	0.002053860358624426
-0.004920859824494461	-0.01766382817372248	0.0224704312071083	0.002858765010430802
0.001407674290555063	-0.02549183022475501	0.01250260663686977	0.0002969650678451037
0.004096684764600603	-0.01904697861743921	0.006874380851149851	-0.01019244536714756
0.001717079067174833	-0.02541654373676153	0.02676818319036262	-0.01139489910498901
-0.0006231863350598619	-0.06015457346146772	-0.00642395345054733	-0.01649036010394007
-0.0003652299759919848	-0.05413403050763497	5.70150885353261e-05	-0.01945354825789699
0.0005242972649886731	-0.04404834225857112	-0.01431421549962868	-0.03243567182753554
-0.001246674329838944	-0.02236820038192489	-0.01633165246586151	-0.01251461929571153
-0.008078536289343553	0.01743460601776986	-0.02116541681173632	-0.001488989481366042
-0.009213774217533506	0.06402834152635493	-0.008923668515426362	0.008772541939351916
-0.01156710562808791	0.06931050337242976	-0.03528081500325669	0.01802837132641604
-0.0196848364196793	0.03103185281479506	-0.02933981445580872	0.1074168619686134
-0.03665533706158002	0.003938401216231369	-0.02983587947521894	0.1901423372214847
-0.03164361833886865	-0.009459224608385027	-0.01722705148325011	0.09612652696448792
-0.01575731065836369	-0.002127046920236613	0.006095244032810437	0.03703831373289577
-0.01392840140945196	-0.01588068814861744	0.03876971698119221	-0.02226385040698214
-0.007731111414549648	-0.0174705579932684	0.05583038597211712	-0.1085252873191672
-0.01446099594443231	-0.006967451123079002	0.05314334417737664	-0.1297835837429887
-0.006035937989801962	-0.004280036854501879	0.04329322947376997	-0.06884714777552353
0.001737562952925688	0.01612521231628179	0.03623709326722693	-0.01426880010330232
-0.0009223713357046515	0.03877867077519848	0.006264219326396037	-0.01814480055312077
0.004148210983961665	0.08210850670509115	-0.03312489165670159	-0.01408146199203544
0.004165977990408149	0.05773160019916256	-0.05647789660739304	-0.04335706906813048
0.00609969431498836	0.02031707708167252	-0.04625197086573279	-0.07610486722059305
0.001943421121392072	0.01204658821445942	-0.03759329361793058	-0.07380077328979383
-0.005124784591819996	-0.002104274548734305	-0.03120261984857096	-0.04692418412644989
-0.003531473218131586	-0.02712366161521981	-0.01490421874175286	-0.02771129893889163
-0.004085563125614146	-0.0426055766486245	-0.02699363890209507	-0.02161677386241882
-0.004021639428919277	-0.0339012864683323	-0.06752216003640445	-0.008339373151962429
-0.002508171837552209	-0.03712743631950752	-0.0250025242290147	0.002929657954424941
0.0001401497129360942	-0.001781953906284981	0.01740048464620323	0.005847452774478343
0.006111503080511632	0.05894272440481451	0.025104642634119	-0.0001105415810058993
0.006013563832764254	0.06300523520594017	0.07746441608220248	-0.01976969653790249
0.003413844500256574	0.05551397293194099	0.05861058342586514	-0.003517065893118379
0.01271245008387279	0.05108806694077509	0.0423404990907537	0.02463689089080673
0.01745985750262976	0.06357885651820375	0.07264286498051127	0.005404518282688616
0.01754371126072172	0.04592616954617556	0.0599184252282705	0.03396658373899643
0.001833015716537186	0.01568802973787186	0.05862890323794932	0.06533645440606264
0.0009854935356732658	-0.006870027650140826	0.06437313801970367	0.0966827579209269
0.005079656819248842	-0.01048338934344743	0.02372594921326797	0.1103094853363277
0.006652046906880506	-0.008072893184705814	-0.07856079492551285	0.01081787282922365
-0.0007010440545677637	-0.01709015935516043	-0.09175673335939863	-0.06641824941474143
-0.001269609275884899	-0.01427332267382225	-0.03574834365548012	-0.1057773317191407
0.007633473484223182	-0.02023411771414597	0.01219639316995702	-0.05276401075219518
0.008814475972209017	-0.02792477679940001	0.07262410893376518	0.03056193380752549
0.01603409853073887	-0.02592881943988381	0.03370422491988031	0.03194860318838765
0.01539040450037736	-0.02320561854226029	-0.06332613659306441	0.06976019650883408
0.007676230352454128	-0.03288884890843271	-0.06901405707172394	0.07107087785015909
0.007083179721776505	-0.02570508593921301	-0.01308800214153502	-0.004506476483956949
0.00852207967891936	-0.02109943618443418	0.01122622925974584	-0.0121603459315742
0.0001918747577758192	-0.02544918124713164	0.06200891375701284	-0.0001135732741082016
0.006098916720976622	-0.02636337682030875	0.009444641827929022	-0.01780010654294766
0.003401829550398688	-0.02287964850080389	-0.003568854173755896	-0.01983885749429598
-0.01147053578000586	-0.02201113845363868	-0.008300842173927453	-0.01069342237973449
-0.02222932193746813	-0.007108757329030655	-0.04617616355554444	-0.02344099631476982
-0.02718061862110042	0.02125257161053168	0.01278683885003691	-0.0005337104365367667
-0.02693225561960714	0.005376477648915632	-0.05578315412741893	0.05759862991556507
-0.007181884349987851	0.008654281627688328	-0.0548073064511088	0.1533053693059379
0.0009158788060506844	0.0074827923035706	0.06820707820886064	0.1513429616543714
-0.01322579618028979	-0.01289015262426776	0.09021871977202169	0.07175742805425951
-0.02143801164100507	-0.01355709455341985	-0.003622294166494698	0.02825721128791537
-0.02000114773864227	-0.022450515141434	-0.06750013603344208	-0.03538189131162774
-0.006358147957392131	-0.03599182899754042	-0.04492782281533179	-0.09251825244945128
0.0002589700819760686	-0.02464575458181138	-0.03720322503326098	-0.1014573624220707
0.007942166556454093	-0.00252780739651692	-0.05371122791203438	-0.1094685156185122
0.007393698479808039	-0.02072417279635114	-0.03379859519622191	-0.06855248898290116
0.006253952316182353	-0.03254241817561788	-0.005008658420308097	-0.03138049052065717
0.007436772042478087	-0.01048307802447835	-0.002972263923835508	-0.008692466798510583
0.01681233316154798	0.04064351240775809	0.07867876968124858	0.002080466073310987
0.02504418305111501	0.09020036390501687	0.04211222628841071	-0.002765310038302677
0.01786938101029035	0.1013827128314969	0.007095755331586193	-0.006995405090524776
0.01556063630990816	0.08054913214710553	-0.01264683422934026	0.001328869306134406
0.01534387589051548	0.05404771999088937	0.00964637600216731	0.005390498300513752
0.001624818880711129	0.004089460313535591	0.003754558264886321	0.001136673467129518
-0.001043281292124864	-0.03460371521321595	-0.01923101422480461	-0.01344379010804305
0.004695953534489376	-0.02195021380705936	0.007348331311681434	0.004476005102061865
0.01452542746629099	0.002295226725475428	0.01949578738566293	0.02508053025405417
0.01631828966751054	0.03528379659540201	-0.02543645263178356	0.02613981747092111
0.01936867257418454	0.03418900009724912	-0.03325189960043032	0.01135786565806045
0.02244444190135881	0.01934298290482392	-0.05474707908347536	-0.01804844016644614
0.006993948185295281	-0.007063933732845256	-0.07693512870230401	-0.05825144034301839
-0.006627783326940334	-0.03746377230042473	-0.08617718188654512	-0.05755837765029442
-0.006623532963438023	-0.04751578573685903	-0.05336909603011324	-0.03634989402044909
-0.01873099902176499	-0.07667589541508327	0.01156701563834033	-0.03586771672461835
-0.01642275404522782	-0.0623479215225378	0.04135846066285064	-0.01075347878673469
-0.01464333593504147	-0.02106392102123222	0.1762137452533484	0.01561195362157073
-0.01370038655033646	-0.0001627910081259604	0.1544658287828855	0.01340158726048691
-0.01403837316332709	0.01585326672281551	0.07995832535709167	0.01786213302711245
-0.02105646659976766	-0.0171437446423417	0.0738465212526429	0.01112267523384309
-0.0243077623258418	-0.0330062648301432	0.03903636367367112	0.008989529170046849
-0.0148730547711307	-0.02748881131047844	-0.003821981940714717	0.0007790775924174098
-0.01048984121063748	-0.0297201227210695	0.0091209771380355	0.01896092247251771
-0.006290795894382243	-0.0168295592025353	-0.01257678028136969	0.02860314615870462
-0.003130489397773438	-0.01195475065416242	-0.01607646190111833	0.0004506226507578107
-0.005535624104633733	0.004671047930590986	-0.01169640335509357	0.002587822200953733
-0.001477682285700482	0.003132612386527449	-0.0381435721029316	0.01800711709261573
-0.00748612010364217	-0.008725099198487385	-0.01020405071788882	0.005019831703872981
0.001064121452275386	0.008914934141825656	0.01518933245717778	0.01423450239025824
0.006557422038328592	0.01538572313998952	-0.005409551899754757	0.02067219427915658
0.0113878379805444	0.01129433073377394	0.03597248117138858	0.0401450860433845
0.01098127211305174	0.02203463298197098	-0.02422753460187383	0.02776098023515514
0.004689968136558503	0.01038776140798134	-0.06116706963990286	0.006508049306272022
0.00821657816761643	0.01278638928185414	-0.05229993645227805	-0.004603139866817683
0.009411115945036011	0.009111421790561307	-0.09133610072317914	-0.0303005735375072
0.008398220668947331	-0.01086191332350994	-0.09023055486310146	-0.05886101294094918
0.008754339902219794	-0.002597187010921897	0.0152092280246425	-0.02856744480265361
0.005360781741295891	0.03534747703870562	0.06174470801630055	0.03588439271383132
-0.0009040325719078252	0.08807669407125231	0.02104506022996238	0.029297141022207
-0.003144958740145332	0.04348099187493278	0.0258857621636708	0.02351040545001594
-0.006575657298537384	-0.003445553144878159	-0.01906998744133803	0.01067187088882021
-0.004654705580999323	-0.01164994790252345	-0.04129402408908974	-0.001924652038333321
0.003478050906001897	-0.03765734956190685	-0.03056280660325406	-0.006909097699263528
0.003902650879336892	-0.04046623104467997	-0.04942141707703924	0.00376087175372608
5.335882371481725e-05	-0.02651386796827843	-0.05379050319845259	0.03003065185054276
0.00381842312241845	-0.009377669320950206	-0.05857230848922477	0.02694750625755302
0.002310869839167704	0.01747012362996217	-0.01798304533947111	0.02716426654003188
0.005536753816002509	0.05195015665201592	0.03640660443616095	0.0342209678411511
0.00089296377420019	0.0341385727101711	0.03490073983392891	0.03694998882715091
0.004324211460058898	0.01974773756076894	-0.01708884894450353	0.00566033387586966
0.003519984142580023	-0.009751549362042141	-0.01246199938614133	-0.02825293576305965
0.001763906311207263	-0.01990544803704019	0.03247323758790368	-0.08545208732380689
-0.0003138599549054518	-0.01306965269478405	0.1238345570267557	-0.08276104980943727
0.002944560998508519	0.0005360381652906952	0.09065368300248017	-0.06689596102451098
0.01163826845360017	0.01880910946799008	0.005782910776346169	-0.05558661745000092
0.007398544931644902	0.01760575001831712	-0.03308734574966295	-0.009498495753407473
-0.007033996245211519	-0.02409266605106964	-0.04798004756417889	0.006168457742566753
-0.007644636889521201	-0.03928663116872699	-0.004535519752239037	0.02559872233631064
-0.01636568214334129	-0.04523112543870431	0.09317103180914356	-0.06409620423846221
-0.01652322568670951	-0.02541143955834507	0.06890347761372467	-0.03766651778150566
-0.02238064290002717	0.01378842084525593	-0.02499417100886408	0.1098999277300458
-0.006900884694113556	0.03601371060350612	-0.04358906346046006	0.07904186761971364
-0.008762751706908527	0.01588332076485253	-0.0594365190635608	0.03268724779037673
-0.007617271635890547	0.0231460304113649	-0.08202479608643354	0.03229619892453185
-0.0001182790142973788	0.03708730642239382	-0.003092130466294982	0.03107745650209448
0.004140743202243134	0.01952712053932826	0.09509634713885823	-0.001420420794409873
0.005023631782815648	0.01413185314775641	-0.02388487177260193	-0.03565789774770053
0.007796470710259964	0.02859031723906082	0.02713862767442588	-0.04868426044031549
0.006945903365403527	0.01424985142800551	0.07811661785408822	-0.04698245340487298
0.01041154502174059	-0.0012268312466825	0.04328926009210367	-0.03836463885441946
0.006604648613487301	-0.02714266078682906	0.006306300371523833	-0.0243495502978098
0.009461138595085294	-0.04252765446790136	-0.01632035761901719	-0.01119928245739017
0.008072228477875287	-0.04533597933770205	-0.02382608585479861	-0.008767069823906353
0.005694514081510697	-0.0398740224013081	-0.03951718122419177	-0.006186515761361196
0.01410210415851676	-0.01492741191415027	0.01880474391454135	0.01109393919530627
0.008726423700715037	0.02989846670444649	0.08150404041853683	0.009826805243246257
0.00237382605282445	0.03390966626686218	0.05545202367731528	0.01532193720581065
-0.002063061971394941	0.03555107480448109	-0.006591251200776569	0.0178947347583124
-0.008973889031802773	0.04063484838387924	0.01648940036768442	0.03083345702067835
-0.01367926760988389	0.01247272682216557	0.0393861463682107	0.03652074811968942
-0.008235496394924555	0.0002741896075573309	-0.01421457951918416	0.006525159907575047
-0.002675460917994029	-1.451555597006021e-05	-0.06161193395400849	0.01267884929015025
-0.003019845450696619	0.01775211890971395	-0.07104414475662478	0.03090255934809179
-0.01748191775190401	-0.009041423785344177	-0.01029585045753784	0.004037608495163608
-0.01058894715800007	-0.02720308717466932	-0.02038903688403039	0.01175896557095898
-0.0001756770223640173	-0.0310978216083451	-0.008863895591760665	-0.009986438520932842
-0.006203768485672141	-0.04392764207527493	0.005931925670936661	-0.04759748706475076
-0.005954755810530365	-0.02904266162430885	-0.004751437951343405	-0.03493284152562225
-0.001818005655644358	-0.01922697317877841	0.01382682061186046	-0.03524223936416149
0.009223542304956594	0.006004123772798557	-0.0001018078623785069	-0.02205173602473609
0.007013917858837781	0.02089858603873829	0.01139085815525222	0.01930163296546005
-0.006973934976192382	-0.009927753375445979	-0.03980405972306333	0.00581840134517167
-0.00566206511826918	-0.01676400691720541	-0.08268333477942769	0.002635495161252521
0.001314128869231493	-0.002303757828927635	-0.05635228582202813	-0.008391496920383802
0.008111574318058527	0.006588265045766927	-0.01321701925336426	-0.0176282168343332
0.00582444637115807	-0.004109683242690388	0.005296443152986014	0.004997004480812878
-0.001457652435025427	-0.01452724085177307	0.02584745242830034	0.03338459678162337
-0.003533550398708186	0.004996644202875943	0.01587461419367409	0.0329930203591715
0.0003258290642541228	-0.004287281475268903	-0.01544616917182333	0.02115881717314475
-0.0008130240781041385	-0.005918961461138531	-0.04015790699977512	0.02720819872081654
0.008890309380896676	0.0136840507883844	-0.005830579993561357	0.010462602617766
0.009670996688959474	0.04363644000722042	0.02548583111777294	0.01958500935652885
0.004347996303554094	0.01042469225334905	-0.04351877143326573	0.06695971768056763
-0.005377333059808891	-0.01590597313087252	-0.02255130634698043	0.06560864097911753
0.005471955953685536	-0.01267878151724722	0.05088363583357047	0.02621424706967057
0.007928047549588304	-0.0005517645419985259	0.04856976214116756	0.01774737134422467
0.01183598806851486	0.01644391287614885	-0.0008065868685862809	0.02086498391469921
0.006789454777315727	0.02033279357851818	0.01492946059104133	-0.0419169199354681
0.01467918904054102	0.01347509494227142	0.02273495409754877	-0.05701021204952605
0.01131842893511776	-0.002361589498525854	0.04511897203034076	0.009221676386239268
0.005939536365832125	-0.03291897109502751	0.04020501096222309	0.04704218344286288
0.00417328508326107	-0.03903641027871124	-0.01470984147734235	-0.009683458297668224
0.009703027584341106	-0.01809792144384709	-0.09435385956305836	-0.09797829268592194
-0.003293358348789625	0.02298757517875565	-0.1613153279554136	-0.1130660579874386
-0.02065445677412323	0.02720138308419654	0.004397231103265696	-0.0547924961008659
-0.006262627699951439	0.01238163103986526	0.04235970608528283	-0.01069100268491747
-0.003383500031104863	0.01989773128404886	0.02528167313401172	-0.02170352993017231
0.009747436884160181	-0.01295013831147667	0.1398167689146119	-0.01460023638966569
-0.003957224751261749	-0.04030194900678057	0.07938466033772087	-0.02373871684843306
-0.01512752664214961	-0.05599498555202116	-0.004674797691959991	-0.01402830718786229
-0.01564072792052824	-0.04737004659730693	0.02748959488158945	-0.001843019219990347
-0.01367304400460742	-0.02987149518926602	0.007479786043767636	-0.007977979338514987
-0.01460681110159336	-0.01853446343623649	-0.03018963130591188	-0.03003565686566946
-0.01802781995171761	0.02449940402006131	-0.04497782158072097	-0.02153985143766067
-0.02069728434280607	0.012157321295903	-0.06043392520986572	-0.009110046186355912
-0.01038635325870862	0.02745046152012318	-0.04853813471237791	-0.01664854719610119
-0.000523432397944444	0.03935098074490923	0.03613953743562026	0.01681699320232392
-0.001526589232417549	0.03556284752606698	0.001456809346514396	0.1187472511358838
0.005803070960118412	0.02888760921609534	0.06765992803077882	0.06627379439159918
0.007979629648987244	0.01902336139448553	0.01565364620539856	0.01868252889818434
0.009108986562534312	0.01857837679790739	0.03395815824519176	0.03016976187141272
0.0102552948756842	0.008522609796374613	0.03744302715024599	0.04302560530800306
0.009444981671989199	0.002815847500766002	0.01694222037558443	0.0171282452864516
0.005103543773622623	-0.01020369809414466	-0.08948368595860866	0.002460739559812949
0.002931731012495304	-0.01309203621355814	-0.08970564149720353	0.003906742124567766
0.01006345562945498	-0.01942769769462449	-0.0679297022181479	-0.001634249231213558
0.009758210305386081	-0.01891970521224898	-0.08814141253139868	-0.008638566395041011
0.009490993392725317	-0.01605929540359628	0.05547464427388173	0.0006902591717946858
-0.001042891513017557	-0.01339690993830855	0.09453804799769561	0.01338290313239632
-0.01308787499216304	-0.02076144609139305	0.04650327005627151	0.0115919811980071
0.0005122886495054882	-0.008171032028620327	0.08744735945576754	-0.001374737243360439
0.02628698686573708	0.0178074472419313	0.06527549742025672	-0.00406665963889886
0.03089014100925746	0.02518104327003671	0.008482224196395204	-0.01518807639160988
0.02555608180094417	0.00299458460383704	-0.01736822956665075	-0.009555165933167485
0.01118474476648757	0.002578189373139469	-0.04054396984912945	-0.01396828768975059
-0.001066439555120419	0.01183945961891826	-0.01144411858750103	-0.006637925514373025
-0.00391684938502971	0.01343696437895477	0.003742564166123465	-0.01130758006287243
-0.008452682895614221	-0.000307748013199243	-0.09059326770169661	-0.01957411362321795
-0.01123072215174878	-0.01521469246224856	-0.04875220393355414	-0.003157401563267792
-0.01438475233478763	-0.02672162133843279	-0.01673491435882233	0.01148644795182422
-0.0153272144269265	-0.01265008967254488	0.1101320819222821	0.0122161772971289
-0.02105405833664727	0.001372050849529739	0.05465859198111293	0.009601046558995116
-0.02001426507901428	-0.002778929198668806	0.01638120657022588	-0.0157733434357364
-0.02254008465133217	-0.004466647993542175	0.00158955400498364	-0.01393411329168865
-0.01687965186088531	0.006820934887635383	-0.03587221529638831	-0.005983452492916084
-0.007791542963023528	0.03451991558232281	-0.05371079481654487	-0.001101338637613161
-0.003456795360157671	0.03409278401377425	-0.0750453990739666	-0.02159050274911287
-0.006436422383389211	0.007640736079934676	-0.07489380979486063	-0.02829573073530577
-0.004617342036162755	0.001717176711037409	-0.01344949683857178	-0.02764215897252004
-0.003251448581098418	-0.02213487792613971	0.03715869255671581	-0.02693827842655727
-0.006522919057580024	-0.0241771080179243	0.01711564784478285	-0.04099546498926958
-0.001772973045600251	-0.002657379054972351	-0.07182902673848769	-0.054640453603919
-0.002861577600363679	-0.0006635477648477875	-0.08295542009910672	-0.04089504629036841
-0.005333442351259115	-0.02337731539819669	-0.05205284406744369	0.004770462404682945
0.002963561676848847	-0.005295619902237034	0.07159097835411729	0.1362885937699337
0.0116920173339865	0.04578639781434203	0.1803663943667725	0.127837223697453
0.02447539564453387	0.07255574847741705	0.114529690734327	0.1090916994094809
0.01921485284635985	0.02827989890401414	0.07041815444527444	0.1055335609466927
0.01924651041356164	0.03598586734790352	0.02776346184270002	0.05515528602217318
0.02135105683887536	0.01693369843872136	0.009677012612221161	0.03342763368958559
0.01861470678439258	0.007641570124093128	-0.01043852067279113	0.006484265329238675
0.01115465801585595	0.006301411607917077	-0.0680309317698357	-0.02803087783316313
0.0132365907346335	0.03074619870581804	-0.04070568738570982	-0.009747838434501489
0.01095574801263757	0.0441478271673539	-0.01129057240455243	-0.02081552752009211
0.007063838235010747	0.04688188300966582	0.03315180088954162	-0.05405349819748276
0.002412734223196312	0.03293349986707444	0.02872640296446093	-0.143565308315576
-0.007608516273361111	-0.03404040334739572	-0.06713485396158235	-0.1770548652699409
-0.00853116457892393	-0.03621704488418419	-0.02641680972156971	-0.1249904044858725
0.0005664813575054862	-0.02303495851024675	-0.03414620548201436	-0.05451750027824127
0.003989982609122313	-0.01768659841423523	0.003716983040012576	-0.0149828091557475
0.001248750770117633	-0.001121416826088276	0.09036671421674076	-0.007948023126134511
-0.006165535424586558	-0.007936469363421942	0.01715186915300714	-0.00460182559215117
-0.01183813566735552	-0.02763011564594478	-0.007941731832409409	-0.00104802534517337
-0.01371262706073067	-0.02437584397592542	-0.02134390605832257	0.01624046079935986
-0.01606673203031066	-0.01938622431372965	-0.07810543448031768	0.01751377999578724
-0.01553216668437974	-0.006343020110676087	-0.0650546767157177	0.01475335618577399
-0.01258899592028394	-0.02094047001540525	-0.03457559755669912	-0.01121398745859073
-0.01579883271320539	-0.04128249215500111	0.04615114237339583	0.01165705900562024
-0.01592943106721505	-0.04743849755118535	0.05928292365741986	0.00807484890392721
-0.0170055737501975	-0.04265341314917278	0.02192886170982133	-0.009563687256470577
-0.01437046975249956	-0.03694969644936418	-0.01755968820480409	-0.002549726380559824
0.005296114134386505	-0.03665787125625335	0.008941832250525307	0.03210454147529116
0.006956162316865986	-0.06143962287295187	-0.01463261660408842	0.04912937376925139
0.003015118795562155	-0.05013201797647225	-0.0229370447170821	0.01880919876653263
0.002907978544386587	-0.03915463897929243	-0.012776411195023	0.004495380665499964
0.004658806517021588	-0.0300017550804148	-0.008579836772458436	0.01272021058399464
0.0002285798323114876	-0.01082557363731933	-0.00595904631666906	0.009141564518633957
-0.004187302924594696	0.03459399408041665	0.02091539642360681	0.01899117970825294
-0.001260367203811685	0.03846016659093986	-0.001708724256591025	0.02628957189170299
0.004487662518687139	0.05179311849283984	-0.05432600985449749	0.06301031511516177
0.008970388185204702	0.03472789536811061	-0.04357234861899898	0.04141721616615705
0.00185937134315781	0.02033222048411504	-0.03051151449503839	0.03181889356502685
0.0004797407447269195	0.02347634943718709	-0.001166147088687709	0.02350687862491123
0.0125912328501282	0.01413243843828416	-0.01930171713972766	0.02586505620912934
0.006025970729718939	0.02650294201015172	0.05200283422641853	0.02324277283744241
-0.001173732370231654	0.03454471024170177	0.008127024148520698	0.02651738855260198
0.005010697745134621	0.01852446459293848	-0.04603999207870287	0.01437127115877664
0.008960309836694753	0.008109130657526649	0.01763367254315284	-0.03531563925916285
0.01131278606531628	0.01269674533149099	0.02309299335527738	-0.03421178121522909
0.01136596474232585	0.00306622826307863	0.08197993118015859	-0.01518126437962032
0.0129484197399117	0.001617540577755374	0.0344980383095109	-0.00150329641543814
0.008681929311888145	0.01701563614957696	0.00146477129773307	0.04487807934759739
0.001965250715794549	0.01691917677768748	-0.04488678717740474	0.1129369217770823
0.01323174699078302	-0.0009853558302628589	-0.08137067201583761	0.04331279103882128
0.01177566820772043	-0.008958524467715643	-0.0252852345107271	-0.05083768155417075
0.01325415382655386	-0.0142380501966169	0.04969861821305632	-0.0560758873236452
0.005053116736021841	-0.01431289459512661	0.06050620725199483	-0.06885138920612834
-0.002116034287554266	-0.02704264288358292	0.03110469764197007	-0.0545691601879045
-0.01511514458435998	-0.05191837855034498	-0.01740606851805394	-0.06184454117648368
-0.01160648027971998	-0.07126590595059704	0.09085136603071149	-0.03943939870832678
-0.01029991261875196	-0.04465016380715957	0.08253524645414601	0.007975477669866457
-0.01461215284521599	-0.02264391230187041	0.04405689953703786	0.08717382832022876
-0.02555158562222934	-0.006933705546262658	-0.05250023793268186	0.03044087368943761
-0.02734955465666653	0.03382906497092601	-0.05454082690453386	-0.003101251146824963
-0.01408940862578687	0.09473250414713656	-0.000968875553453592	0.0111224860540311
-0.01148283367925473	0.08568075617075575	0.07388289096219786	-0.008654170301726815
-0.01173206295215893	0.04831973239360895	0.05728273925453305	-0.02082969746983145
-0.01585829822189385	0.04556553788861165	0.02509266950201187	0.04589331445069866
-0.009585030126114761	0.01440522370766188	0.002567713839604819	0.008769024640170771
0.003476325939043557	-0.004137883928594133	0.01037313924049085	-0.001592253231648801
0.01571792500624873	0.01124123011506595	-0.003807478741317081	-0.01364723448976133
0.01622010487844028	0.01856907052053691	-0.04047886823226189	-0.005947579511479489
0.01319655325190412	-0.01731781291723465	-0.04459039252128179	0.0564147210918496
0.02291967941343395	-0.01306082049591564	-0.03878682613643565	0.05090703534424129
0.02204784844179501	0.0005291314948179395	-0.003243878057459529	0.01455118508109238
0.01390660834261723	0.01716542167047704	-0.03679321783882739	0.02088509654767039
0.01870527965835729	0.03480318872723401	-0.01029147068445646	-0.04090561153410653
0.01454330385187118	0.02078766407738175	-0.01974044260789834	-0.09679094678243159
0.008396093410914705	0.002544031551671956	-0.02975328874708801	-0.08607681006885484
0.01033757580183714	-0.00713650339003816	-0.0154192040817943	-0.04492874646406334
-0.009445777535792193	-0.01924201467124321	-0.01473593077157537	-0.01764169494163985
-0.01488996199692299	-0.03060183156219953	-0.02323006668016679	0.03828753860406631
-0.01475817418954164	-0.0246142297653646	-0.05889036160971022	0.0845579966706128
-0.01432237785605523	-0.01903043924506828	-0.05449716990995201	0.05607349914915315
-0.01638756825883228	-0.01301316070217512	-0.03277781031723206	-0.02551461006933084
-0.008468945581924941	-0.009747920606802535	0.01065128517640918	-0.08049029015576152
-0.0170742774302325	-0.02236520729399219	0.07428250309900959	-0.1235554607470992
-0.01978625091304507	-0.02755076878675181	0.06513040850634896	-0.09404354250366853
-0.009835679138027829	-0.0303887886261857	0.1081255463147277	0.0324640181506393
-0.002049907285558001	-0.02569357624952463	0.06135689234400847	0.01370101780159005
0.008954084877401573	-0.02559935318853747	-0.09743727348648865	0.004849232636460573
0.01019523241306916	-0.02399488221605009	-0.1367761986402292	0.008863489124261954
0.01293038868355757	-0.0007734966123829412	-0.1740538137476865	-0.007841752368364053
0.01284978941411037	0.04393320792117609	-0.1131770364329064	-0.01941197784456256
0.01247899020535399	0.03780609692084416	-0.03286265532553023	-0.02298567332927438
0.0090094147388066	-0.001433431298689388	0.1621772172768911	0.0034710404709091
0.004853619489782123	-0.005165839717131686	0.1806079599691462	-0.01097298810518214
0.005711167824874274	0.004410346686960991	0.1224427223954551	0.0008467964585818369
0.004886122447887307	-0.00375189028205925	0.05081147617124317	0.01666955176234698
0.008940077001805788	-0.004147798498886706	0.01745685130688317	0.01033928184291442
0.002450244621760515	0.004149453357016623	0.002897502536897763	-0.01879340558250634
-0.006010563999934258	0.01127795501051487	-0.01091032220230195	-0.00542943059012897
-0.006071039960429081	0.02366766410603692	0.03854756654333797	-0.02978898376329179
-0.00222097010204422	-0.01569466236136053	0.01721284403823654	-0.003922641514728591
-0.006278246456792316	-0.04179236752091673	0.003221383380958371	0.01572449573087776
-0.003573944795144725	-0.03675978748615312	0.0179439576439283	0.01805985810917397
-0.0112254453855137	-0.02550787684301481	-0.01333832090593853	0.02082958387171932
-0.01265647954729751	-0.03256339592730953	-0.04606210083134912	0.02792756178308745
-0.01155357396868026	-0.02176988685755912	0.01045494276171038	-0.01205536971356299
-0.01914338729908577	-0.02700343641613753	-0.04683894913999305	-0.02076286865454492
-0.008257340280277524	-0.0382103979831739	-0.0349756096792147	-0.03332304706810307
-0.001443978392037997	-0.02583546761670293	-0.01179991972288848	-0.02367581104696828
0.005360766886424045	0.04250031396221703	-0.02363478888593417	-0.003118780421329974
0.0155614030285326	0.09937523005457972	-0.01835054929744356	0.0300878188810556
0.02012604418429761	0.05763611739527504	0.01742523234145355	0.1581131160865718
0.01234198382681962	0.02543502411658038	0.01050476875123114	0.09800958569450789
0.01427530817270973	0.04850513623894739	-0.02263262347385658	0.008361013000633534
0.01103187814580933	0.03710516808688782	-0.02880624068424987	0.04105145279177259
0.006373730819952401	0.03536593508506431	-0.02823365964039062	-0.007164363728005372
0.004510219176783606	0.02358037443359647	0.01032000121738308	0.007626708944601205
0.0009428385564407619	0.01525819976675658	0.00220789960033896	0.06534129002596073
-0.01406659505007496	0.005356998055963408	-0.01082587819535909	0.05568723224565818
-0.004425570661160371	0.009753962467534273	-0.03125964954309421	0.007610897345692475
-0.001370464125698544	-0.005535700289064837	-0.02430272311400481	-0.05649450931227105
-0.004112949467224205	-0.006048373252084177	-0.01603776914889819	-0.09646589728977104
-0.00818501337473471	-0.02455338449362745	-0.0405803958685528	-0.1162531010550476
-0.005976378213578941	-0.03751810483944742	0.03496067546310251	0.05237325263772803
-0.001477192005753312	-0.02779490564238514	0.09511042667453802	0.1082014483608152
-0.005723088274357337	-0.02627726897984665	-0.008682129878010593	0.006419806533631324
-0.0008863892564441888	-0.01488489700503386	-0.01616005884243004	-0.01083757063352676
0.001934567189672479	-0.01286739539770493	0.02152817287959069	0.008671882373277118
-0.0006225992496038463	-0.03651802107186874	0.03138660874469217	0.01155038671837877
-0.003863060448141218	-0.0284682956896248	0.07069852259637277	0.002006442113652093
0.004724641402675808	-0.01605474793807937	0.03705775333873731	0.01215978913313345
0.01754332318994391	0.01288639349150953	0.01615775897948611	0.008479317880649295
0.01927517808574549	0.001019533827383015	0.008675960801093403	0.009937715232309356
0.007429034489404707	-0.02768214436056303	-0.001445541203115325	0.02113420873411084
0.006926048449483179	-0.004529818765543947	-0.06288404915359046	0.03758403172154251
-0.001681159496849884	-0.0002152044194006519	-0.07581997543933366	0.02045870385733682
-0.01827165860288226	-0.004962207478912602	-0.1494635814947295	-0.004773116392602502
-0.0170087494044512	-0.002934511982715638	-0.1546141635324905	-0.04904515639697653
-0.01399432213205192	0.01265008705646789	-0.09358600837326389	-0.06160206423848449
-0.01008617732907195	0.01375395730477515	0.04316464236398631	-0.08326286316702886
-0.005246397976997199	0.01553841353090936	0.1662051848596833	-0.06332443567113573
-0.007288713386430497	0.01634823603051155	0.1595184568648046	-0.02119303657134527
-0.002915903884584853	0.006728185970952637	0.1106322828222786	0.01774184271026131
-0.002483301914838357	0.0101610889123116	0.03105808267736635	0.01318118823365292
-0.009810569518892599	0.001338539985351037	0.001924473581531183	0.003520646331500247
-0.004757408663044772	0.0004401469580522234	0.002214080552046853	0.02649347297791558
-0.001100531743516597	0.02540404334029657	0.009882930634717025	0.02533725074837269
0.006267505316365918	0.03925958271908893	-0.005723587269861297	-0.04140929797481829
-0.002888079673227562	0.02797501606487443	0.001871079736931491	-0.05676870671836615
-0.003262570709350327	0.01943825992149577	0.004178502690644738	-0.06264641807265874
0.002168628762757227	0.05218968041915661	-0.03709906483972745	-0.06411327724225126
0.004342264485134788	0.03014424174436972	-0.0783970124120439	-0.06054576425055924
0.00701640974567396	0.003642527811597216	-0.06989194462894335	-0.02398121551386701
0.004873856610322183	0.05206474526517973	-0.02213826920778899	0.005543713538701337
0.0139965910042445	0.04387898242681383	-0.007590010778866832	0.05596619215119704
0.02027317132988897	0.005290469404761938	0.08063525226141499	0.119286130568358
0.007534855698534862	-0.02149476005680835	0.09789286317909675	0.0459912967355648
0.007503560370973456	-0.02922479835748612	0.03619268682369135	0.007937171103438917
0.0098589098728337	-0.01824028778701753	0.01919009646114768	0.0001988316130164465
0.009183372858076837	-0.01942178440079733	-0.007347294191457216	-0.02259396837515973
-0.004618941507425167	-0.0406154492515676	-0.00811297445086861	-0.01517587330039288
-0.006395782738938825	-0.03684901036947019	-0.01757832062815204	-0.01461979502206662
0.001593619721321458	-0.03681508513581107	-0.01419370358297623	-0.002881976813581368
0.004658584883128776	-0.03076450747023517	0.01060959876328096	-0.007111492443350648
0.011050949209149	-0.01419957330886245	-0.01099596696356783	-0.002771577840702239
0.007452269468133032	0.009069336160394419	-0.0267765872018081	0.007553590097346834
-0.0005655555451518217	-0.002578948509794032	-0.02259415035859458	0.004621443687055201
-0.01900570813724593	-0.03329156951200046	-0.0132418405171673	0.003112264261317543
-0.02515246732518537	-0.06044432993503305	0.01187323929271524	0.0271391452258529
-0.01532258078991427	-0.04752320177832189	0.009457471667022587	0.007440075270406877
-0.01336074375686898	-0.02212366835656501	-0.04659387447874513	-0.000565206898687899
-0.02700103434461478	-0.003222969432124531	-0.08370204652548412	-0.005455175711975858
-0.02792757200118506	0.009521948017737624	-0.08245682810554379	-0.01112237625237516
-0.008117286751515089	0.04155203117237279	0.05673125728173463	-0.005383820372089823
0.00552681495408831	0.05066817539751082	-0.005866141869016652	0.001911521473971878
0.005652725208741936	0.01660752981873128	0.04043574959617223	0.003338216438195586
0.01058859046049204	0.003106768387253346	0.08111975338478186	0.007728951040446561
0.007337616923330396	-0.004849650328466785	0.03010922982768612	0.02258264679179434
0.008706620213224499	-0.002086133054488413	-0.01126960862311043	0.04447145642780387
0.0008117453796060935	-0.007455968478068225	-0.05827697201136774	0.03947730241633435
0.006557786375779621	-0.003798433159584733	-0.04109417573860247	0.0298331196344148
-0.00111621786065323	-0.01774566358548553	0.02341555178008125	0.01590960110421293
0.008138041352211358	-0.01065405309280129	-0.003437031950126451	0.01246125531193669
0.01027436122204559	-0.005050231795829363	-0.01887140179477796	-0.002545129334180459
0.004830029110724032	0.0126043442238991	0.032452871319334	0.001179632470311518
-0.001071816951340202	0.01068270614950404	0.007602413338452634	-0.01369099841974729
0.002764478089791945	0.01786368302964514	-0.06331983770519432	-0.02364071588220732
0.002238215826743936	0.01985931251137339	-0.03184733988210952	-0.02725354080566384
-0.008739789456042868	0.008711444173229776	0.05176096148335456	-0.0143891760338868
-0.00700904289516103	0.003834753167803766	0.08468065392728977	0.01057848276658789
-0.002220909895887053	0.02419806214446825	0.03061715022730113	0.008769311400652853
-0.003990625393170439	0.009767236213172123	-0.01156498473720788	-0.006122009440842523
-0.004390707928376096	-0.001422582900610482	-0.009077854122919305	-0.02201346395858786
0.004454190897811358	0.004979925278155683	-0.01171858949826421	-0.02754129766097049
0.006642140071224373	0.0003397759474001081	-0.003475084347509783	-0.02130153155857747
0.005735536738647263	-0.003464502289430057	0.03155522256228829	0.005614633993404296
0.005281958766394258	-0.001551615627083794	-0.04655099216873431	0.02068609798606543
0.01484762184470548	-0.003574496704875517	-0.05053566829825707	-0.003277075326920533
0.01707470003567874	-0.02227073634331383	-0.07910249065542034	0.02639040856464569
0.01163372562668782	-0.05455862238141827	-0.008699547892692052	0.0734848045310411
0.00784524694767663	-0.05471350633960623	0.1333695590296375	0.0003721581967659883
0.007766170494659223	-0.03715098151821977	0.09353600436841376	-0.03284484052000918
0.01020914711304783	-0.02373092683241342	0.0247415706382533	-0.03988375572382451
0.007817310717865341	0.0001160164247388846	-0.008846493234245099	-0.05494131931014355
0.01699038209452058	0.04032735347681628	0.0163724895534552	-0.02374507165511008
0.01178360386460549	0.05565342918370057	-0.01391924179991469	0.01407848325131249
0.006303347763065636	0.0357389314724648	-0.008463620700766965	0.05128386726132861
-4.681087723140746e-05	-0.002832068826751615	0.03465047264773383	0.03534626998181942
-0.0008466308876499579	-0.00109367415085323	0.0280773632963758	0.02620185433764241
-0.003280948581759515	0.01837868643836256	-0.0155458878531497	0.004626537468965303
-0.00511666661067943	0.04833484436236812	-0.08505585063018734	-0.05114638801060409
-0.0124551254515082	0.06832932248429234	-0.09894001747585257	-0.05082975835365821
-0.01194127429138138	0.03359697607280666	-0.0172589762930482	-0.02870716465264548
-0.01314897361933684	0.01552277035459617	0.0339659904494568	-0.05587162511482688
-0.008983136048846822	0.01006879263030924	0.05779287789251353	-0.04008651296561726
-0.01293717348427222	0.0001207927085025985	0.02588101749393064	-0.0294108936390272
-0.01273644975664219	-0.01072315797768688	0.04834458058918704	-0.02239321359525442
-0.01558838431002824	-0.02324827864923304	0.03542852052663011	-0.009284974678976484
-0.005534477819430446	-0.01657767259655969	0.04950235759651125	0.09606035361267026
0.0008754193576318607	-0.003206543337572774	0.008117879520407125	0.06461541629493853
-0.0002555032532447333	-9.490956638328277e-05	-0.02104044702343126	-0.004656672659874387
-0.01119626446602608	-0.02423644440782653	-0.03348491888558621	-0.01922357091317524
-0.003445064353529249	-0.01495961846917696	-0.03655727958153088	-0.002581329615025425
-9.454295252834501e-05	-0.01167260563421409	-0.03808293691082221	0.0190841577214596
-0.0001808604273600526	-0.02000848996177882	-0.0349136171759395	0.02794858135694882
0.001672370646652715	-0.0290425110221906	-0.04552041895939574	0.03527133295030885
0.008230861913133243	-0.04281796062645669	-0.01035471971696096	0.09950499457022009
0.002036023124823478	-0.02076468792516327	-0.01586420400259288	0.02312894757679836
0.005565804194557363	0.007870403095027279	-0.02575047223657089	-0.05993167393378416
0.0007842507478413614	0.01439073918287334	-0.01451895479247067	-0.008732899807812628
-0.003301018821474452	0.00923125016240015	0.0003698297980830419	-0.03309244920429512
0.002410147989839632	0.04307933382709305	-0.01391823021351051	-0.02375063332060474
0.005232995697681802	0.0281337459120083	0.06875649055272794	0.02123096111291326
-0.00105854999291492	-0.002785679192053941	-0.03681186517403549	0.00662067064164219
0.0002126875753057283	-0.01181410695286529	-0.02399178187248515	-0.009247006311467416
0.01317922775275306	-0.0003437414675952251	-0.06410864491378127	-0.006996450415399659
0.01093454779382232	0.006497764349442942	0.02660418641686332	-0.01835275705327058
0.004342438286230313	0.002031575781728979	0.02850205971892647	-0.01156364189570187
0.002949301664523158	-0.00339391910046346	-0.005133503927995242	-0.01642936811451462
-0.008630896980780128	-0.002387635862312754	-0.02728650242128991	-0.01516605124786666
-0.01450153526873349	-0.009265837590797125	-0.01230613008640964	-0.01640653560648717
-0.01715621807380057	-0.01198185114240271	0.08647090455295436	-0.002210086668819424
-0.01145167843250411	0.0005034791785248582	0.0540065824712101	0.008244976477711869
-0.01900347543361565	-0.01729042780624464	0.06883585355781682	0.03153196191875859
-0.02922729088294261	-0.03030484758389164	0.06635698187382005	0.03199294085777962
-0.01783601646744891	-0.02512076752882339	0.01343083902875089	0.0311100547530042
-0.004274110955979161	-0.01761174882347117	-0.008468309757915829	0.03185087869202629
0.0004447714925854041	-0.002666656282343732	-0.002878318376899333	0.007682926186388597
0.004110691151611426	0.0002504449593132365	0.01906911675220434	-0.0141637117399253
0.009697628183311191	0.003348077889621678	-0.004051747981162784	-0.009285786963466222
0.006090665232656107	0.001615602455188158	-0.008029691799993136	-0.05723364897997973
0.002827286453903751	-0.002989590179898964	-0.07720977112995038	-0.04930880788391299
0.005781397397173303	0.005290515937056942	-0.09658788430110592	0.01506604700862798
0.01622042551830247	-0.02453926624490363	-0.1058485436951297	0.0193276405773281
0.0105514756662382	0.0169347405770381	-0.02774767440851292	0.0258124989118622
0.01385646039906633	0.03455738985431571	0.1258747968481805	0.01705868871400675
0.005811321832593449	0.02687249221415293	0.03055358913594408	-0.01927159117488825
0.005333501599871682	0.0248024147553005	-0.01592010136357131	-0.04667603809900952
0.003102187792786834	0.002737777321682754	0.003924073731944983	-0.05573669732042894
-0.009356236553866734	-0.02547646022330886	-0.01928302827052728	-0.01787718380163637
-0.0140139276908904	-0.05515105732624765	0.01559262441037896	-0.007130705300044367
-0.009596133230828635	-0.07752854309168154	0.03216350336668859	-0.005312605899590038
-0.01170130037311375	-0.09193703473226729	-0.008730198230356943	0.01681083756271719
-0.01407409981995258	-0.08393538196556641	-0.04051816182768077	0.02285816532321136
0.001571617571829547	-0.03202638408191158	-0.04321201932954501	0.05176743585118119
0.01069244932549398	0.07457557668964415	-0.04371895201768265	0.07295265511011982
0.008464146281973353	0.1099951101184345	-0.03663889269156622	0.05984833467355077
0.004121593682752761	0.08756026234515402	0.05309555474528849	0.0218000300349809
0.001790611320813357	0.06249823354489432	0.07743728413348921	0.01748204609708453
0.005113872085105162	0.06574322329191981	0.006263063639832286	-0.03113678359993123
0.01489580578813916	0.04208363201247032	-0.007693998288831557	-0.09941641090593928
0.02065271591440881	0.005598702078345278	-0.0104146562160021	-0.07564441126956216
0.01835295730903533	-0.001132885880654594	-0.02978487526940353	-0.03663031032494212
0.01750791577842621	0.01348696857801064	-0.02973002651771444	-0.00696522530223531
0.02171283853244828	0.07024954149386485	-0.0002860463069559037	-0.006885310926853941
0.01112098461052855	0.05513839097048603	0.0001027433750204111	-0.002829146226878861
0.00386665880871185	0.04187254085531091	0.02258957149447977	0.00757839751689254
0.008370797165172387	0.0242386219688865	0.03519244027131332	0.003635621257833637
0.006426746508107111	-0.001983048993539913	0.01751252000561352	0.001554617151545193
-0.005312421444985204	-0.02344835084266498	0.005471777251362765	0.02990745370185334
-0.00461844780606356	-0.02325694671123777	0.0007884279476247362	0.03167114561370495
-0.007887955136468625	-0.02462954218660952	0.02210528712649336	0.0187645382278763
0.004694618046646373	-0.01432915105502983	0.03829429252843691	0.01820053998635494
0.003647501119421096	-0.01244874074968453	0.01231607313148949	-0.003106872568770968
0.00123671352341442	-0.01240665643740516	0.0003451123032809188	-0.009773724694358714
0.003868431691502614	-0.02268011387234355	-0.1046827883872708	0.03079398199784995
0.001261746125543125	-0.01858197731935835	-0.09804054019375477	-0.0007960504807880366
-0.007770539716867616	-0.01617706382106326	-0.04277315008501792	0.01573892819432653
-0.006806143814817794	-0.01398686880091584	0.02143340523170134	0.01321293517983002
-0.007431453644964382	-0.008469686430912098	0.09802894028961438	-0.008341214690697653
-0.01364326774311718	-0.009489526165432983	0.04887003633639775	-0.0310700210385109
-0.01075327945181478	-0.01393617899587931	-0.02755009022607354	-0.04804341639465927
-0.006743818748392825	-0.02209669861432639	-0.01143436039795733	-0.02670581349215119
-0.006837389698506025	-0.02447875204203772	0.05615214846515145	0.02430696909155678
-0.005623285191002594	-0.03064878744106047	0.05071908676689045	0.06190272197435622
-0.01288261340470977	-0.02113697771045132	0.05492835335754164	0.01329531377707609
-0.0134433084405595	-0.01887660391143149	0.07532372098633443	-0.01761447621966099
-0.009844992022595497	-0.008954492662720939	0.1187805857838536	-0.02060822185071966
-0.01903686757949721	-0.01140335461405458	0.006373669729299254	-0.03795129561623756
-0.02556461528785546	-0.0309119511794096	-0.07706709681877837	0.02020784055708925
-0.02622643662633997	-0.04258085445968548	-0.02540271578151711	0.09389148167689489
-0.01903851067208611	-0.04512121632146173	0.01561579443613678	0.01871295205057593
-0.006959504088255846	-0.01897230002143551	0.003916079139846073	-0.003217933802849926
0.01448144588198726	-0.006191983610240748	-0.04199167810847012	0.01414720307418678
0.01349370976935091	0.02309721004910148	-0.006183596688649269	0.005072096055293186
0.006874825970087835	0.07446480957742323	0.03533733353844992	0.00539364850188465
0.01354150678443153	0.04584567435916671	0.03529916160428012	0.01762388949421958
0.02465211457930729	0.02779375360162751	-0.06038849152493396	0.03684489603776388
0.01742855994685151	0.01065398400637533	-0.0668521305321588	0.02252405780092896
0.002440738290652602	0.002086243336622797	-0.04258685711715397	0.007540913514580604
0.001415968254154283	-0.005228848207128395	-0.0368854006625416	-0.02298212373265456
0.01688635564073495	-0.01750078098984754	0.06384779464184412	-0.02722826318379965
0.02125511123111205	-0.0009748249554542598	0.07445401631411402	-0.003237411387007759
0.0194242477836174	0.0140044126251161	-0.01243174290214069	-0.03597901911744451
5.456507840129021e-05	0.006795638826987529	-0.006787201887710204	-0.06592639291004158
-0.01507282907438027	-0.002839809831457807	-0.03912578827212904	-0.06003995825983817
-0.01258307709317016	-0.01070325689408672	-0.04312317463429195	-0.03617097227952371
-0.01007095542315809	-0.002174976987277215	-0.02173071813417396	-0.02344356615384532
-0.009351321973177545	-0.009860538946985027	0.02859167577341808	-0.004631579579697027
-0.004705805317749588	-0.004036423237695137	0.00283084456732147	0.006393638530808601
0.002941662104471937	0.009245269394431236	-0.04081470154127446	0.02891331573100445
-0.003198839373492791	-0.009706011809635937	-0.04109432243003825	0.03912248954867473
-0.02469532395316423	-0.01136981583398581	-0.006819032530992017	0.01927272586339152
-0.006565214088777832	0.004292084341011147	0.003060932835569384	0.002722638264129688
-0.001755080210822377	0.00765505953707972	-0.01375002765725279	-0.03009577616538436
0.004874257249974777	0.02537341863408251	-0.008233475653695045	-0.06514559519646343
0.008885790243869216	0.01488026861601886	-0.04049140679318513	0.01447326286009006
0.00275405029776676	0.01184356256629298	-0.03879072223645995	-0.001482096535943704
-0.00902528843712902	0.01789420463643809	-0.03483429883641793	0.002918372751364923
-0.0052320814784468	0.009162873969429514	-0.0495673486076747	0.0120839059850154
0.003629626586962991	0.007024603119282809	0.01735830052317951	0.03243203309863431
0.01321769425834973	0.03119427006899426	0.03270373855816075	0.06780409483755365
0.0121589224588584	0.03479107904394426	0.04044604883328207	0.03945966790420146
0.004565253600441786	0.009822703152663632	0.03126489562180997	-0.02278900805647976
-0.004424507508030699	-0.01251841998335012	0.006115238066255046	-0.0541604564860209
-0.0007047504701343199	-0.01688354857039653	0.02283168126685261	-0.04935175320971626
0.0009823646104400972	-0.02053821016343458	0.03927498425104081	-0.05803185536996439
-0.0005048106898082001	-0.005108810779612517	0.01331105772853769	-0.03554910676888959
-0.005509966903411208	0.004079516665066363	-0.01356341349022005	0.002868373621413766
-0.00491728016002441	-0.005750752062050855	-0.008576287913104682	0.06921763245412985
-0.001579738710393	-0.009676903174592832	-0.02777297971793508	-0.004094858026499795
0.006968905470469498	-0.001581848626601698	-0.03486583922826013	0.007045765857046394
0.005519736316391193	0.02470653755833892	-0.02896530324535396	0.02510696486179234
0.008284711588841774	0.007649226357875238	-0.01572947769122308	0.01947324488804353
0.004751284613807867	-0.01710098831905375	-0.06034352009619645	0.005195587866108159
0.004596104198025855	-0.01490425608177502	-0.04663916817183369	0.009213610811679967
-0.009895656139219864	-0.03695295299262615	0.001440538030079967	0.02915243583166236
0.004731490154438935	-0.0321207615976838	0.0295653440707152	0.02394421523350444
0.008685470785560801	-0.04445487899554503	0.04980417874940338	0.01319453506139221
0.006802852343465274	-0.03096498670480263	0.03651173640399126	0.02016811425169961
-4.159329284622999e-05	-0.01599018480195526	0.006349017670967017	0.006982716175712405
0.01132250413943597	0.002754932429221658	-0.04624506692743694	-0.008600634536478025
0.01275704299111356	0.00893926537797545	-0.03081822738391174	-0.02144350011913455
0.002562932546486982	0.02850809220436523	-0.06213231029443297	-0.01542855948242437
-0.001348252768678753	0.0221427578250593	0.05172552415039167	-0.03297255405049323
0.005485334919961619	0.01793662082926255	0.1222432733689109	-0.0430786893086568
0.002915738863894937	0.00310454351025366	0.1093512861634546	-0.02503406580096595
-0.009696279232879077	-0.002642487178385162	0.06031958477335757	-0.03249496927900814
-0.02068023826533214	-0.01866169300977047	0.04341352068147095	-0.03690647364198528
-0.00708309588832837	-0.007067016221057399	-0.01067436861265797	-0.03784552838800978
0.002366300642028114	0.0168671439477044	0.001436188824994288	-0.03872168876872534
0.0007133724135817255	0.02016392484208624	0.001003899084890934	-0.02093119713875288
-0.003248587426234685	0.02191613857147223	0.009530664566345749	-0.007156583670928999
0.001994330551335651	0.02008976953695929	0.03194876799263084	0.0493123075258587
0.01132099824225122	0.02390302423096198	0.05280012693606859	0.0521481114008431
0.00710252619582384	0.02285600226232548	0.017826526844604	0.02876092806771691
-0.002835822510804525	0.01217220223856508	-0.01185970558169021	0.02721629041746678
0.000942280922146013	-0.005911146024150289	-0.01625449743250639	0.003118673360448058
0.009589530224167817	-0.03361814725096441	-0.07671252462842744	-0.01075728403623836
0.0004501317565687269	-0.04584091862271194	-0.1224056505444924	0.03092289771929919
0.002255766708796837	-0.04803386738555717	-0.06600324643838575	0.05196082181112834
0.01341337048551587	-0.02835780591743214	-0.03625680291163033	0.06021749986143608
0.001767734713363197	-0.02411839211733688	0.02394878422952346	0.06387050177595699
0.0005132243741711896	0.02681554498754178	0.08135221047712474	0.1092452990760746
-0.008381888090229451	0.02093072783743451	0.06426960861777553	0.049646453687787
-0.003861281577468897	0.02487282263694448	0.003800444092445108	-0.08505703916755233
-0.008946605768680725	0.04460299797846301	-0.02142604578778541	-0.07984293709791647
-0.01143708211240726	0.02153806347691327	0.05393445090965812	-0.03819906264680769
-0.01439824192931622	0.01753381666805971	0.007907226870207278	-0.0273930584743125
-0.01000902290071084	0.01742585951702779	-0.04015445558300645	-0.02686282123867686
-0.01048267355747545	0.003175333368710021	-0.08672852281547723	-0.009602324936877524
-0.01999585971770718	-0.02157371083924683	-0.06328699810841291	-0.009782698374808064
-0.00684832725282852	-0.001572915935789669	-0.0201480920564751	-0.01201164892802599
-3.927603120240614e-05	0.02276505020591864	0.1011521894341924	0.003967642220409974
-0.0003537353416945018	0.0535865044118865	0.08902288753258121	0.0004024875701033649
-0.01331127300052583	-0.01856364707044763	0.06143197880942968	0.009285076291214474
-0.009771074924308646	-0.01190059811802143	0.02426829920435793	-0.0007077142267066971
-0.004080413212973145	-0.003793848154993862	-0.01813379322104991	-0.004962871002222803
-0.004728406283339254	0.0004835872972728309	-0.06420548118430597	-0.01177196536869263
-0.0007844347743636557	0.03481282980256221	-0.06550828495410704	0.01376513094453505
0.000352079961822845	0.0067530802117886	-0.01931604604341333	0.03655883797228464
0.002178543958839423	-0.0120188086052079	-0.01189313638728546	0.005978226143093994
0.01542814470868261	-0.02983241612553059	-0.06620285487982992	-0.02028029567047303
0.01233278671601754	-0.0220035668328953	-0.03411814421016374	-0.01856980876655577
0.009672122755706282	-0.02896894514672209	0.04915260452967423	-0.02124905614453535
0.007565604426924417	-0.01952151091950497	0.05716588991135475	-0.02109109085250136
0.0008267984843612598	0.02452166688720272	0.04387039391803189	0.05469216697058033
0.006208725782965411	0.0397619791721061	-0.004694108985019326	0.05540383098702866
0.009754543806389513	0.01324620100391303	-0.07300491118947691	0.02017865840836049
0.01220009279410777	-0.002637870644947192	-0.08727272640674674	0.02733546286298591
0.009786082843508306	-0.005434381547554013	-0.008579939466165327	0.04931222565851844
0.01812372115056412	-0.005493862988493447	-0.001787806833508833	0.03390717677069642
0.02845096121655121	-0.004265337889333294	-0.04846624723922917	-0.006871221066497558
0.02288809993078686	-0.01651360312401979	0.005793220453778158	-0.03584275942547175
-0.008510641221496968	-0.04717766972034957	0.01099708295059708	-0.03689516044798807
-0.01337366638362599	-0.04042843357237157	0.05396579534525327	-0.0164256440227311
-0.0047040105232686	-0.01474680060472905	0.01293992757621899	-0.006358058841224144
-0.01167721688209689	0.004809267001277731	0.04336550114543959	0.01037753607439541
-0.01052647531211026	0.02536849246054179	0.02732754973028212	0.01428334399568367
-0.01121539882320909	0.02151258709860902	0.01311207827533436	0.002053044554394832
-0.02005295307258017	0.01060962789125089	-0.01792252974267306	-0.008221869893755868
-0.02967577922367502	-0.001838868162642027	-0.03902828241173079	-0.04275692906298623
-0.01120712594238854	0.006148651613272541	-0.01864069393495154	-0.05429091240513741
0.01170769482266078	0.01924552604435453	0.01197227488137679	-0.04778413581066752
0.01742940678515418	0.008002811080283502	0.002895043291602778	-0.04767769361656218
0.02256210966517957	0.0003303894247161267	-0.04720618925217059	-0.03181783095576204
0.01617545169781547	-0.002743339306378774	-0.0561700503235675	-0.01295614391685596
0.01034921094861565	-0.04396372502238347	-0.02460686611118397	-0.007910157269861096
0.008395591229661692	-0.05330759274047795	0.07722007907280666	0.0057176774063035
0.009833575929315016	-0.06770861129398834	0.05917584352902804	0.01447765062012188
0.002577017549267457	-0.06294358984944848	-0.01443973513702952	0.0559717443720795
-0.003770283772464198	-0.04945665495817765	-0.0140935307862117	0.0122000775253229
-0.01293480796657764	-0.03908536593346142	-0.0314092695989581	-0.02621274336985372
-0.01461602621391204	0.008655040439895552	0.132756924780579	0.04257951548625752
-0.02406328149040288	0.04598418063044646	0.04212682125955614	0.03313220042419627
-0.0358870067966116	0.08745544936724045	0.02566055958213333	0.01105366649119461
-0.03515190879261138	0.09193622142638465	-0.006267796709402322	0.01120881004131544
-0.03925053537382785	0.04329001132586408	0.02843420584287549	0.0344846019717323
-0.01647893559770433	0.02588565057313619	0.01322003174871798	0.01210875516376506
-0.01705834526217993	0.02152961889504587	-0.0523801698992712	-0.002527002561371642
-0.01220484945704801	0.007244214145730858	-0.07005308699925723	-0.02391171405851331
-0.002004893422754017	-0.004441910136728244	-0.02878596819214694	-0.04329504966354883
-0.0002265031512051822	-0.00443160495643261	0.03725708517572884	-0.09684485105773619
0.01311110739004375	0.01222038841832063	-0.01980238216741994	-0.06631820919444667
0.0237273898137688	0.005668131283033462	0.03296909814474796	-0.0368869842191029
0.03640442914818753	0.02036231578934867	0.0317692508980336	-0.02029749947868924
0.03210291199212371	0.01585638808075726	0.01398930811818451	0.00753745627908439
0.0191774056868726	-0.003758773377080438	-0.01692545229948775	0.04653603447386949
0.01935832311810887	-0.02095338033247731	-0.03393805880578486	-0.01793784006307355
0.01699901202253726	-0.03122209367166981	-0.008246181094397401	-0.02196392572951496
0.0170935797324079	-0.01907111266043863	0.01665786731932137	0.01424572603270382
0.009984305571579989	-0.01093076360469293	0.04851683610194352	-0.003058915601289081
0.01503128007665454	-0.006417285513147884	-0.005398107760593592	-0.01303175025790985
0.005458217484327378	-0.00421955751468607	-0.0305789136541918	0.00158371947308989
-0.01367238822892439	0.001147980255716978	-0.002799106331122997	0.009605968344193101
-0.02787477143157417	0.003729143269651858	0.01236452519918998	-0.003180753901354855
-0.02188532386176503	0.0210981528969572	0.04115294756778367	-0.04325156144217326
-0.0169243067098538	0.0116668858326303	0.004272038560085018	-0.04441892234022737
-0.02009788141648113	-0.01133303427216758	-0.02252540691361896	-0.01563661271416996
-0.009363371339150585	-0.02344901209639393	-0.03078173031811298	-0.00439135456331856
0.002292003937044823	-0.03007533023864842	0.01481711424692337	-0.01770918346647144
0.00970244953034146	-0.02359435485539146	-0.06494773125996499	0.05037104308231592
0.009721153224936595	-0.0193493241621987	-0.04805707179169352	0.1257504679432004
0.01394070603066844	-0.01241233042492801	-0.04542691127913998	0.08540855735728821
0.01977938252108591	0.002192464102098737	0.01615860433289054	0.04339890350741191
0.01437827086440114	0.005684531658421027	0.1128076506431848	0.05523113847858797
0.01667978457355162	0.01196596318243029	0.08028319384943387	0.05542376045306794
0.02064892236959123	0.01353478913194276	-0.004290615236693894	0.0274453508966584
0.006570098812279403	-0.02654034426298129	-0.02156759133162358	-0.002986362472544303
-0.006888117189502246	-0.04114735589268823	-0.02058455803433177	0.008015172315012243
-0.001228786052049209	-0.02111515622072148	-0.05318322899792408	0.004119851984441712
-0.005605892493666329	-0.00111050050395578	-0.05073709873023144	-0.01145152703584874
-0.00256353514440844	0.0459481492214225	0.01023470820875327	-0.01402448834114014
-0.008403945919609997	0.04466485137175275	0.02783619648061616	-0.01710767903411183
-0.02016050819135593	0.01088837594930373	0.05051540870214241	-0.001737591648202184
-0.02253680513217266	-0.01252953386977565	-0.02562512390723559	0.01070042560578082
-0.01601647760423477	-0.0157198386183369	-0.04196831091847007	0.002447078800101881
-0.007984149682076124	-0.009013290492751161	0.02533670816779615	-0.01037940000085155
0.005065255064365012	-0.001468470941272428	6.641377665376286e-05	-0.01660849798216775
0.001462111995451578	-0.005867407686496478	-0.02010033192805451	-0.00745198551943078
-0.003600055552628533	-0.003221979995349407	0.0009367188491146318	0.0310631758508115
-0.00190449168811021	-0.007533970889767857	-0.03061706555174333	-0.0112132186798711
0.005506447167196981	-0.005127190806384929	-0.06376879119124217	-0.02151756061050221
-0.001424910945255922	-0.008837239681508574	0.003586859215763798	-0.02374472017142681
-0.006864980314598586	-0.007052785847270604	0.06681188428393915	0.01287112915287529
-0.002881511083082623	-0.00471493286064718	0.002465278051389747	-0.01246128322788805
0.003026610248346241	-0.007844964966700077	-0.04243528228892404	-0.0311468022332118
0.01129765750081121	0.01133274837822382	-0.01525902675174076	-0.0008245152542193698
0.0137399214648048	0.02570981280771205	0.02924391244981288	0.07530492158092862
0.0121961800430584	0.02270686117334828	0.02635362508817738	0.0948996652685372
0.003091720135670448	0.00950647949854993	-0.009064817474233584	0.0481184115739008
-0.01132830975447724	0.003525894854193782	-0.0108519666824664	0.04896223181411603
-0.001253455381081326	-0.009246107379406577	-0.04502235859466666	0.04870393665825055
0.004996459152644234	-0.007455010046433667	-0.03761448243201556	-0.0009432437304545911
-0.0009379444718614234	-0.002653942686407628	0.02794371996194072	0.002233223889676272
-0.002004923886028495	0.01192994458000683	-0.05941095357283698	-0.0106318942385108
0.002227909325934618	0.002427780069320839	0.05027053695913604	0.008755939740347055
0.008309579253928253	0.02375196733944455	0.1315883178290981	-0.02943836764244385
0.004117256833011529	0.05546559770421329	0.0423866459127026	-0.07202801242911189
0.01420654046487958	0.06273679993998149	0.03488703168156723	-0.0981683410122455
0.01323732709983228	0.05849305286531289	0.001944510962406336	-0.1090999332235722
0.01222712984696494	0.01317194107525503	-0.007430951166691913	-0.06547051581672228
0.02003822944437129	-0.02281799586426002	-0.001000644119859517	-0.04528215941083624
0.01751071541956925	-0.02586745635774216	-0.009365443497236709	-0.03600827519330758
0.01523494514931328	-0.01927910445884609	-0.01331090551659205	-0.02566034549502715
0.01566438002821965	-0.007978881509723531	0.01462909882773911	-0.01188291323544864
0.008229520470534825	-0.003051843050640442	-0.01779693837101617	0.0001412385323527437
0.006329210361637231	0.009547512358789239	-0.01546366433168736	-0.001928762728605727
-0.001698520324248619	0.04697527311565414	-0.04783999575921329	-0.01991423290868147
-0.01365726059525394	0.02938332901673348	-0.05494127264019026	-0.0242058503529154
-0.02181843763351028	-0.002653663637607045	-0.04967081622120009	-0.01170236142224719
-0.01460749687608333	-0.002126313942042572	0.01722058228103779	-0.003683128429364755
-0.009298803942513966	-0.003301603929701599	0.08033944649518621	-0.006799827978148783
-0.01473794977846823	-0.003034540176298107	0.05206700251725947	0.002113420960666576
-0.03339966258263073	0.01393735693738633	0.0107698234127419	0.02616852572763262
-0.03206822613143095	0.02534977083732711	0.02070040488119946	0.03510304991502734
-0.01980778965207319	0.0256837024008369	0.01115717911736933	-0.03594058620017603
-0.01575527905409322	0.02710698880519652	-0.03674789702769433	0.05447974602983412
0.000118434200941793	0.02477398706620599	-0.002651113405214949	0.03282475852001532
-0.00381794664529753	-0.009769048958722168	0.0124391519800065	0.03522844930692918
-0.006296128263208057	-0.02582987446713389	-0.03414825310915973	0.01944555565911353
-0.009406159934517998	-0.02867940449325914	-0.05944172948486306	0.008190724718609231
-0.01249138348660489	-0.03652532315314336	-0.04194064960319396	0.006495409087461619
-0.003246326388047885	-0.03899420422905115	-0.03086599731559684	0.01676780006583378
-0.0002219753429075888	-0.03634271222512469	0.01636887255543024	0.01017907172185099
-0.003704336189888015	-0.02975627045280198	0.05372066409333372	0.01224268663685188
-0.0005796598436465357	-0.0135465157607967	0.07872537578063089	0.02071765058096182
-0.002185741820445067	-0.007700923934345603	0.03794477347380936	0.04422455835781248
-0.003396278899689302	-0.001354183928780971	-0.03318856851244759	0.04312245734458091
0.006312559989530556	0.0275015327559541	-0.03886494487184863	0.02739931040853513
0.006125447782260714	0.007806523605345815	-0.02571595571953741	0.0146612227030112
0.01001338236667371	-0.005384603570548091	0.03740115912444233	-0.01827199541857181
0.009865917570354569	-0.01980660399839433	0.06285961926474935	-0.02355418139718444
0.009356304211244391	-0.02497939710396186	0.002367118015936068	-0.01996683074817353
0.004851898631948909	-0.03416243775646257	-0.02557673190710408	-0.02787959942501021
0.003398523851018614	-0.02881170828802597	0.00455537531373959	-0.0665087246815657
0.0002602870110007374	-0.02970169464725244	-0.02790126193454759	-0.04089593044487892
-0.002329404174347986	-0.04208728990858525	-0.04270223287012691	-0.03136249971497837
0.001044080540225686	-0.03468183861384252	-0.07478588013447418	-0.05086250980323519
0.002958039606852851	-0.02417098423099666	-0.05238797941641778	-0.0211846572793259
0.00534299238500172	-0.01452270845165973	0.01652644408774985	0.01619500658069378
-0.005495906663347172	0.02826648076218819	0.09467701594927132	0.1113622507568135
-0.01017096261420826	0.03535085375217711	0.04226741074995417	0.07887552781871469
-0.007108584297453603	0.01521777575183181	-0.03281731306898309	0.00483824931023342
0.007976216964952978	0.0133911563420017	-0.05494237868661011	0.02195824003815977
0.01033163797055135	0.01010565207521835	-0.09406399577713327	0.01262927904149858
0.01451621761059804	0.005377609575374263	0.04629188166489722	-0.01025801293711389
0.01595835035732281	-0.01141201994236567	0.05449925641517415	0.003926341144562901
0.001591380858145442	-0.01135180661714994	0.0592543634910823	0.01611211151212607
-0.004549923733329065	-0.009952812009323847	0.02416090691207163	-0.005584907355417219
-0.002241391732431916	-0.01622370559536189	-0.01564944743689311	-0.01498201205500726
0.01703909385138054	-0.01076584714239961	-0.004830929370798737	0.02783636860177763
0.01446149284058698	-0.007378282226131992	0.01279672367402529	0.01658125674310012
0.008378171182718283	-0.01300652489731706	0.02300627835437364	0.01985026660185034
0.00534663867231465	-0.01667111330739748	0.01025367772785887	0.03055837061822172
-0.004296544580918736	-0.01576223077914919	0.003295973201668909	0.00614210019772614
-0.005635073315591237	0.0003458602591706472	0.02913487469858643	-0.02674748586695153
0.0006280945453705282	0.02923022193880277	0.0653062663174112	-0.02728337966042441
-0.0005201020631110915	0.05295223404106479	0.01010527003947777	-0.01718923349757982
-0.0005142070990222955	0.0424951561231085	0.06463251879701512	-0.03556580463223533
0.00100621705964582	0.01982732720575331	0.03102344088008698	-0.02653549871062395
-0.002765827340198984	-0.003844150368579545	-0.02054441332989333	-0.01995373297788286
-0.005528724200140634	0.006318077575181969	-0.01848500410680085	-0.04547658071859526
-0.002122821951180263	0.01193277360811839	0.0003681887191458268	-0.1096367262578428
0.002229480862788789	0.02515397789126685	-0.05173098304701717	-0.1038143746840454
0.009537650062757311	0.02123123723696288	-0.06448867268343886	-0.04702019930613794
0.002517933512128651	-0.009189318986399601	-0.06299032952642943	0.04515474465976249
-0.0009178099055766519	-0.01826277952605192	-0.03316079343701978	0.008317333162379675
-0.0009748710704259795	0.001760838028933619	-0.002097757329557145	-0.00673132926329606
0.00405410991368067	0.02662680577218341	-0.03724481226694731	0.01109655584964669
0.005136500726806268	-0.05171332397020885	-0.01869563528867302	0.01755265529120366
0.003425123226963847	-0.06485032454774314	0.004084217829855419	0.03004856055939354
0.007884240004451237	-0.04883216055410509	0.0343914135197727	0.04372286188774665
0.007439856199348826	-0.02513394204750241	0.01398463693187557	0.0523264933111107
-0.02009153815141482	-0.001245267437364643	-0.0003116746049287767	0.02832562172424776
-0.01757274269910758	0.03659384073249387	0.05279839662766897	0.002403062022853811
-0.01191110093459409	0.02707460168001639	0.03673823749257984	-0.01161787446695515
-0.01153261015427396	0.03244040985994432	-0.005030548097863396	-0.02434684167380091
-0.005582783668646777	0.06448586810247918	-0.08549971408436784	-0.02798749748154949
-0.0004286492942956212	0.06071475811608439	-0.1055281395108718	-0.001832861193337556
0.00533686042714983	0.0533229332940885	-0.0425227790266056	0.1082411543644169
0.01660043431464247	0.02774113486843481	-0.01733233467676365	0.1443957410593875
0.02927036635987796	0.01731194396419029	0.002681657425134804	0.04004843605759521
0.02215881442383755	0.00165991164600065	0.01189908692934667	-0.03836530293629423
0.006053383102823353	-0.009599065971434341	-0.04960046073685596	-0.0331610666722141
0.0001629950420101346	-0.0007066271397285276	0.03071368892474921	-0.04366977057509497
-0.007870333774726002	-0.02326289780078995	0.123994847136594	-0.05645292595049764
-0.01714755003200269	-0.0295716080093819	0.005340156460156644	-0.05137841461411201
-0.0133405672457096	-0.02622315997339782	-0.08089524051610703	-0.0469784317932538
-0.0005870691626017765	-0.004923709716205981	-0.08513512385755402	-0.02363510754458099
-0.00511181649754304	-0.006544389387790548	-0.02444503409773308	-0.0002460093535373621
-0.02699678709753763	-0.01876162030376645	0.1326952261451307	0.07206313453688612
-0.03340862723621633	-0.00740537191237677	0.117225538764439	0.04920718937495765
-0.03085164777763621	0.01142449502161631	0.03556471488665459	0.005848776785452534
-0.02475660813307702	0.002706805116395581	0.005274901045382155	0.006272762772768424
-0.01563052272403959	-0.001753752045249539	0.02171923840043441	0.01672993738634485
-0.007947156116173817	-0.002297095548272446	0.02140329745458886	0.02033426517380341
-0.001106450148294306	-0.004052460204819884	-0.009732350879676921	0.01181024010132994
0.003965691400453606	0.0001739579083883035	-0.08413162363797184	0.00726755103227295
0.009666484265745477	0.007287917916372834	-0.06092787193918266	0.01281692897474185
0.002704941338546857	-0.008424545936799531	0.01015883950836854	0.01704325703460118
-0.004882921890570159	-0.02364596026505802	0.0854497461098738	0.02148141147668561
0.004254803729177624	-0.02009002425171173	-0.00378504111666964	-0.004507850761462793
0.01071007286352309	-0.01957999748217561	-0.09763376836605074	0.00347023602564927
0.01709771916139754	-0.02468375164260434	-0.1059099937747432	-0.004244161437628276
0.02821835631615714	-0.05016028857135554	-0.08441429576999229	-0.01555756395812339
0.0253801179308829	-0.05340438354037449	0.03069676205264672	-0.0305104375033171
0.003161186915912763	-0.03801512988347201	0.1602495420562358	-0.03531285898125493
-0.00631885447373774	0.006207194302161516	0.07292357099036123	-0.004166396099186321
-0.007768929765530695	0.03349581885139096	0.04183630131928277	-0.002638083093220035
-0.005655844762414925	0.06057933677106119	-0.01613993034461362	-0.01331869004845333
0.002729809149528756	0.05787520096932668	-0.002238240591620394	-0.05800444650996642
-0.004090967507937704	0.01966247030718704	-0.06785732498391805	-0.05562460048132663
0.003987324343208009	0.004587982552744163	-0.0705275245327545	-0.04919397940882449
0.009190950920869488	0.03538733048076455	0.06016780458928401	-0.01426606631507928
0.007790909814943994	0.03903795472678543	0.0433521605642203	0.03156440596728262
0.003706859387133263	0.00808326646252335	0.03827746381931039	0.03004061896029555
-0.008246914861551496	-0.03315619169336332	0.05083083715128973	0.02042458346464398
-0.00754650853653028	-0.03623776299291252	0.07138831615808916	0.008855521775679576
0.01562613376011546	-0.01659260918571464	0.05242667949838591	0.0149973362097293
-0.01362081981600485	-0.0174226036185582	0.006992134134583773	0.01371687018018256
0.009187221177492379	0.03403949568610754	-0.02854958495509005	-0.0399176419650793
0.01137245233751137	0.03530250965243924	-0.02484907619753936	-0.01126248316817316
0.002601374436400877	-0.01554080744532552	-0.01909150549937604	-0.02275056783466051
0.005026784049559313	-0.01920428294649636	-0.01010630287382514	-0.01804387123004616
0.01092154890215491	-0.01593162097736359	-0.03360639901662202	0.01284828734301886
0.01124377161256422	0.03663235698874508	-0.03965531738774566	0.06238457904223193
0.006585398073634088	0.03629797289189308	-0.00572131032655441	0.0931724853105904
0.02301279436569013	0.03756483496410894	-0.003347559353941021	0.01923017460485249
0.0341874191269876	0.07596849968392357	0.01785997586279316	0.08009139581580345
0.02858687498605628	0.0444294936429093	-0.01066239295964617	0.05407150033766732
0.009568717334788823	-0.01997465985504774	-0.1016900569640275	0.02601840570323346
0.00694761841970774	-0.01264894941495667	-0.06405879915913727	-0.006280383935449356
-0.01452901405788887	-0.01779609752032013	-0.06844555576982952	-0.06407208486707744
-0.01442440567527756	-0.03225615376832864	0.09024516202985437	-0.1176086572746777
0.00281769907256413	-0.02168070258436898	0.1507034553536348	-0.07346353923079571
-0.002298774863727146	-0.01463952851648067	0.1069077158568827	-0.08365402849072745
-0.01615748776235035	-0.01163072742017554	0.1128732499018771	-0.1012286391698392
-0.03683193968014162	-0.005440855274943597	-0.010077463866774	0.01429811115762488
-0.0386665192272451	0.008188532797053078	-0.07366193909537243	0.04147920548786082
-0.0282531774868632	0.004975924232971627	-0.1347256961504282	-0.0298019270529273
-0.02642931804973762	-0.02504571215463766	-0.1050620917524644	-0.04312847254621409
-0.002418349682341749	-0.02221860326440821	-0.03800090346732121	0.104711958542999
0.007791756208546977	-0.0001916842667465204	-0.05820265804080304	0.09227729837071244
-0.004025528509252076	0.02798019135689285	-0.02034887825629306	0.02371090021892568
-0.0136138605871346	0.03535805772286384	-0.01798550654158686	0.01084157308234896
-0.01475917860725863	0.02079784024188181	-0.01676012549674067	0.007078051370258391
-0.008754746608105662	-0.007385284254360605	0.04628014563553627	0.009441802882269233
0.0009508206721702222	-0.02621787498974245	0.07576044585519587	0.01953999887484134
0.006516237600355766	-0.03726720049377307	0.01653846491061282	0.05018357360115328
0.01771297846850423	-0.03454736019342436	0.03256357014863969	0.0300401540140858
0.008558744351896267	-0.03268738422307088	0.05770106233124508	0.03965389493111118
0.006272251610251198	-0.02828710828908902	0.07941236683099992	0.107934462676113
0.02126447445175261	-0.01365371502530109	0.06795015357928645	0.09578558739671035
0.03225856867776568	0.007553594130235646	0.03551788323904448	0.02238684874411775
0.02487586478075352	0.01041201332195306	0.00357278776047871	0.006042437920419664
0.03163307884814519	-0.007125307178479541	-0.005639060612564043	-0.02057856788937246
0.03140839918111111	-0.01006228633001453	-0.01223313367642173	-0.05247679113643499
0.01710499992126136	-0.008571971141602601	-0.01882569811278603	-0.1026987660774487
0.01179340463606688	0.005195790718746784	-0.05276272397513115	-0.0426024768163504
0.008792443704783359	0.005301932221336211	-0.06280820318384898	-0.01556625407250044
0.0009010413578370585	0.01921115294237306	-0.1094537325513351	0.008420469243518032
-0.01392677128731521	0.003561662396528418	-0.06365588092016121	-0.03064986734842534
-0.04614047868317449	-0.02625659957524189	-0.05258075257881005	-0.06222523148925267
-0.05384545918710895	-0.05290905341615002	-0.03600992420728108	-0.06249613573535981
-0.04495242615707824	-0.05356948721318774	0.037466776142435	-0.08246518491370672
-0.03712007570513196	-0.04196877849849281	-0.028425266480003	-0.03765790415093195
-0.02926576633227458	-0.01064662801633712	-0.02209302987321066	-0.01337606790356043
-0.025436581607494	-0.002776419142527593	0.06159583455465203	0.0197403236268842
-0.02342741928084069	-0.01013631564935199	0.03195741609166728	0.07343470349968426
0.004599221309023305	0.01821761252903061	0.04255423941798622	0.06108816077328438
0.007221399463359212	-0.004109783481697435	0.09291009962517144	0.03283749001064794
0.008212208876200638	-0.02242699933487753	0.06246479284152306	-0.05279924605464877
-0.004242907803667525	-0.01106665705239676	0.05449139818056926	-0.08490280955369595
-0.02323113389570431	-0.006582647830068479	0.04987024398270938	-0.07898428936569077
-0.01726797748366769	-0.004598268217495195	0.01851537169304033	-0.1064937825665611
0.009714448940592292	0.05115343706861477	-0.04171963835575127	-0.02904327714178626
0.01265050015397974	0.08044869097640089	-0.07310145362316241	0.05320624605042419
0.01875319536576836	0.06117060699923382	-0.0390307968708831	0.01442408565945724
0.01991192095082818	0.02421895450941993	-0.1035790179289165	0.02014521569119972
0.01475020664244967	0.007882912067616652	-0.1262177251953855	0.02008361064108757
0.0145596083806104	0.01333625783481284	-0.07492397252978547	0.02615253461882596
0.01265520038507788	0.01355712336689768	0.0076040278303152	0.03785788123859863
0.01209069929853349	0.0320910137958557	-0.01109288883584945	0.02086769769322232
0.004776638651357676	0.03375182142370863	-0.01016238420809755	0.009035132745788495
-0.003558289888323293	0.03380424203737734	-0.002246700952296508	0.02377516886141864
-0.01642530645717058	0.003444703148052805	0.09857484362757649	0.01221524375264111
-0.01155996032466915	-0.03634997112436838	0.1979300425936659	0.0268584851978768
0.008866195722945634	-0.03283183898979264	0.06718087411565692	0.02305959274455244
0.01667364000807982	-0.0505254739361046	-0.04158571596221025	-0.0009273667170477959
0.02533787663523355	-0.05190330052533421	-0.09871393129568656	-0.005636642000192641
0.01899703443860848	-0.02796162272725091	-0.1266394812374838	-0.009895560015256731
0.01321942776946161	-0.01577703436457848	-0.05890111798023513	-0.01281150890912856
0.01164040420969997	-0.0292002778280922	0.1068764300704262	0.02002968602356428
0.006067900249287198	0.008884661080186039	-0.003734718446823949	0.02204577133885922
0.007509948350357534	0.07410967486987613	0.0126923889135398	-0.009273609481230613
0.009872153456305849	0.1126783444135027	-0.07571616121956462	-0.01679308377963961
-0.002703787389317739	0.08263532025108487	-0.04314014466782131	0.0005306131624673467
-0.006603605117489762	0.06285288603727295	0.02883521458739126	-0.01331065147865861
-0.004240632180045858	0.039325362197074	0.1536095428997774	0.02307405912046994
-0.0007129686036140739	0.01870445440339763	0.1392524506229435	0.03719982762894321
0.01245856813289688	0.01771807195139449	0.06381450455254283	0.02679238212260563
0.008263395583635277	0.01549192026964293	0.08338677864369057	-0.007746375029768406
0.009097084063068649	-0.01078770968369023	0.1052248288465123	0.02589531893305709
0.009979604319075035	-0.01563407661797902	-0.02389605331719306	0.0701629806262053
-0.002865062575350449	-0.06029163596342442	-0.03585292127285498	-0.005128285582385629
-0.01307039545630258	-0.1004129160869906	-0.01558970062778568	-0.05743222253239087
-0.00676350395845407	-0.09865017088116677	-0.01829540335959371	-0.02514835406854608
0.005989142115488543	-0.08235578706999132	0.004239133876977845	0.0005796484159008763
0.01864692472621523	-0.04179130389955009	-0.07108960172903114	0.0006241245780054649
0.02401691187027501	0.02555085857488386	0.00303736074829936	-0.01263817423632469
0.03037538000286162	0.04774359811334322	-0.030457142182392	-0.006424320587054074
0.02988065566764804	0.02484505622172544	-0.116404063306223	-0.005621389618965318
0.03994623986413666	0.0521511229543043	-0.1388265867573513	0.02068264308152923
0.05030634884345738	0.04023837557583136	-0.09666161155135974	0.01448458636531734
0.05617109641533454	0.0585269275423109	-0.03004779213926819	0.003560667271395615
0.05237711531996388	0.07346171137231597	0.06571938971521502	-0.001257183247194936
0.03364136103005286	0.05677739107393967	0.03675324129126308	-0.0191059666126668
0.02018513616626246	-0.02936587969197839	-0.01125842179991861	-0.04210616450063569
0.01870521100125142	-0.0429495546455725	0.01253062456949774	-0.03581415299625247
0.002087592019991135	-0.04245273912393609	0.02480502953805986	-0.02221845473424055
-0.01561986360925033	-0.04364854845628726	-0.0909328840279144	-0.02707111959066713
-0.0235672049811818	-0.05152915368168806	-0.2136941440872254	-0.02506745527097886
-0.02985629715389618	-0.03754322610147277	-0.2354406478132099	-0.01119543029396746
-0.03506183100790898	0.01879683713294227	-0.3064114892647216	-0.02301158353945112
-0.06619884055080931	-0.003480019280065751	-0.2712773375372746	-0.04781025414442013
-0.1008349956899969	-0.02038310894172428	0.006602111365209962	-0.03614825355993592
-0.07873001181636663	-0.03843513176304623	0.1721546743227119	0.002399589874379934
-0.059617271798044	-0.04252279723400886	0.3720197102730631	0.04069504954608028
-0.04119181570187357	-0.03424167203015149	0.3834168577508037	0.06797721501249405
-0.0216362768471358	-0.007688897581342862	0.4546391489387469	0.08570842607132889
-0.02321260319677444	0.005044065925773146	0.222644106686487	0.1332963923625118
-0.03958762461607913	0.01098378767392514	0.1228855263396823	0.05583016721120333
-0.02130041257480294	0.0190970495078907	0.1883517548080935	0.01886061087228976
0.003817717211341064	0.0605342563128435	0.04291453690154127	0.03004657498859807
0.02076993777540029	0.05234226946949883	0.09702636318383447	0.009030507029561109
0.02158725778580826	0.01583428271562828	0.2080462042998935	0.009251090656003533
0.009773502877022463	-0.00980903415504495	0.1027203522404097	0.002810194811098228
-0.001152356402821373	-0.006302468543719785	0.01270387607908708	-0.02400490380541824
-0.0143181073033069	0.003006170491106224	0.03072951225740546	-0.0361011586461293
-0.01443511325576935	0.008730888485768485	-0.05540649142297393	-0.03435116351359081
-0.01708115911105333	0.02467835805181705	-0.1474063065279571	-0.01309448337020068
-0.01402545919072371	0.002640609727745772	-0.1497401765277395	0.01807532012211159
-0.03933815656204847	-0.05256632131437319	-0.1352395201909727	0.05882995901765414
-0.05541370978190444	-0.07332434237049465	-0.1285729018365041	0.05166875251590082
-0.04373714885125735	-0.06536268888007953	-0.1409890533319217	0.05377251007137816
-0.03054023677990729	-0.08257842570939466	-0.2543772791490458	0.03541416380895101
-0.03110463436101661	-0.04249113823196755	-0.2902497488727055	-0.01758585103561379
-0.02043186165555808	0.01167649575850696	-0.1036901530091893	-0.02503481493360181
-0.01940122635098821	0.05575474663646731	0.03392355875397389	-0.03977010428990459
-0.01197390547958846	0.08111069045999382	0.08593739812453652	-0.06030825971220131
-0.00387391757072932	0.08643693207704729	-0.01602591838781283	-0.05712119130680622
-0.01511183930475734	0.05457874670033282	-0.1100469986044303	-0.02669653312005102
-0.01369283341227594	-0.001062743480811337	-0.04045944425823586	-0.01636737606007506
-0.01541263620700912	-0.01543189453851383	0.00847641464757704	-0.0398937674111042
0.003260728158180156	0.0021224278822628	0.1034016699938783	-0.06383276138852023
0.01649375845557643	0.006972278801208429	0.09804110451195483	-0.09510347900385595
0.04087723098118945	0.03952270429500741	0.1127447651666292	-0.07626757289915982
0.03389860155932724	0.03138070383582598	0.03702997705656767	-0.03438122835725467
0.01167836645975167	-0.001077910797533335	0.01950903529248747	-0.03507994365841906
0.01885251930814518	-0.01869149256237667	-0.06636582344706973	-0.02399916001510148
0.01838415277734082	-0.03819373651726509	-0.1240119338927896	-0.02950178487024504
0.009158513982118316	-0.07036498298361142	-0.09650185054654463	-0.02543895295807037
0.0140807297425068	-0.07423015487023266	-0.04441156645351343	-0.02066091803264766
0.04304766850044042	-0.04384489334018053	-0.08031272483771199	-0.003688000446481242
0.03785279316495097	-0.02299955784734416	-0.06649571154525226	0.005007170835993942
0.0173063189460675	0.007680124721498331	0.009468517138305514	0.01760606528160795
0.008527224630918928	0.06576027789390218	-0.03277523627131656	0.009525145436251199
0.02580248543088422	0.08955987813826505	0.05543134058232795	0.07223482030086362
0.04078617005467824	0.03864036578943412	-0.003960882739694703	0.07741676198891398
0.03768913661783994	0.003772551872051649	-0.01783607761496596	0.03066601740392785
0.01369011829091992	-0.04456494577479096	0.05966357994063994	0.01224729941864406
0.007676453016671501	-0.04553719560152071	-0.0309037334396894	-0.00904365719748438
-0.01555361243739659	-0.0209077231800331	-0.1252189626237553	-0.01936424591638149
-0.01752779963755829	0.04168642546041253	-0.07992045395146083	0.01480132947770207
0.01774491433596348	0.07332224542166013	0.04886930575408526	0.1115845270768239
0.03919019697768392	0.05271359395425846	-0.0352872604838193	0.09420546520680095
0.02479331441506687	0.04490221536516709	0.09423398140991894	0.101035627132697
0.001882768681881519	0.03602847488245389	0.1231034222946993	0.00584125940301857
0.000448892020889992	-0.001653696878089295	0.05076971847329854	0.00261955257235408
0.0155256635056454	0.0005763251602938903	0.003086341110932122	0.001616122093197213
0.02789435063830406	0.01084681497137588	-0.04353734747028582	-0.05230302369719447
0.02037460893842176	-0.005013178752530713	-0.1118494077601738	-0.06492034707577472
-0.007584092321754674	-0.05445677584017938	-0.1595506914964917	-0.07202242658837431
-0.02321517320778806	-0.05653246273825668	-0.1435329834600137	-0.1083836129459876
-0.03816429231253297	-0.02948518614558225	-0.144912101039155	-0.1267256444066895
-0.01114077305495428	6.866632204010603e-06	0.099839753102428	-0.04311806191543888
-0.0146805982462581	-0.01593166765292897	0.2625152885716078	0.0129957578901871
-0.02399829729712497	-0.02857975494300787	0.4696757510792617	0.1292051065207893
-0.01543307910004308	-0.02877592611093482	0.3476172727079977	0.1099065762107055
-0.0002301994973063928	-0.004395974552059471	0.1491069609046585	0.04957167404006184
-0.01189031730237087	-0.00670434264855102	0.03437783628549625	0.01924744541171483
-0.002939967819459684	-0.04289044674288098	0.004906798494607978	0.0468701127715197
0.00811408685756157	-0.02928513287830635	-0.02618818685483952	0.02856590145817358
0.01022265095565344	-0.02661644169423618	-0.1364386995135449	0.01592462048699334
0.00701158328479144	-0.02851702019574292	-0.1531135223907588	0.006368411907124619
0.008084584579132323	-0.01044885908585017	-0.105527860617519	0.03997269917624231
0.01020547429422598	0.01316675924899309	0.0002027687581271699	0.03373448848684254
0.01405738051246379	0.02433526751215109	0.1608189747401069	0.02935512935082325
0.02660531847712803	0.01559977425750206	0.06949593445147255	0.03186832952369518
0.01655839776371355	0.005702575116573023	-0.04570569870467869	0.002743817811534485
0.01349239801142002	0.005567134605531888	0.02295747149356279	-0.03928156748498874
0.02825239316513716	0.01259785648381273	-0.01895453481475647	-0.05875127937824686
0.04107648879431821	0.02680449507349539	-0.07061082915564375	-0.0791085793316762
0.03678670216125943	0.003495348808050391	-0.0865652312773852	-0.05556306491444511
0.03447921860232258	-0.01296352780919112	-0.07037052068364545	-0.03410947615656727
0.03119827195750225	-0.01500417079018443	-0.02657482153297216	-0.04689336846402248
0.02496038132625042	0.00445246581805727	0.001934007368966458	-0.07097801127726891
0.01749760048250447	0.01094348706507965	-0.02475090055675807	-0.046546793180892
0.01467726341531597	0.01362074753099682	0.005544308123027354	-0.004006806947695661
0.0155469761399054	0.009695000240873037	0.02932644815060462	0.04233514786878766
0.01565298916842997	-0.001779880042275833	0.04020192206628302	0.03788986928848503
0.01676416261960206	0.03346053363137939	0.03176725071194874	0.02620431494780916
0.01094870300848498	0.007180943865198141	0.1839744028031277	0.05132445312213806
-0.02053032467707438	-0.01494414668182575	0.02785502287385795	0.02527292059450199
-0.02659596952249108	0.01114852811545151	-0.04362597548560603	-0.01685582114312359
-0.01436977857022746	0.04913841968670372	-0.04007330294818839	0.008971910487537494
-0.008655990497426359	0.05323642929813538	-0.08993332794675057	0.008839684710935731
-0.01827471764121433	0.05024719312916862	-0.09354281316871414	-0.003539468753515126
-0.02513361836456185	0.02318889349283954	-0.1122556737269401	-0.01284345415103496
-0.0254839223169259	-0.00301669810065903	-0.1279237814781659	-0.0203874722905217
-0.01931936080403328	-0.05545869433046878	-0.1894081898793998	-0.04405291990136007
-0.01017616335091538	-0.06309541515217425	-0.2016790898057264	-0.02891579664486755
-0.01785017008812443	-0.05468450536294425	0.03538525332466374	-0.009267137060965425
-0.02435442053335828	-0.03695285579742302	0.2266760801375579	0.04019556727073235
0.003198025183900492	-0.003950475128191012	0.2393236301554589	0.05390413870803252
0.02145211723652361	0.06226254782883207	0.09319761287342228	0.05496504460446223
0.01308171989462049	0.07749232432159986	0.07411562447937874	0.05883892195949696
0.003075150029415533	0.09878051786949005	0.02465679533592353	0.01431822796379206
-0.002125958891317745	0.04361857430153327	-0.008892695698743878	-0.01035790232342837
-0.01195715129582519	-0.01659461653290973	-0.01550112253096996	-0.03380484206879002
-0.007632172274185567	-0.0148953917866567	-0.0008526717222141911	-0.04613270404038296
-0.0194391103101398	-0.005768134073405407	-0.02675418546874936	-0.02576890397458824
-0.02593955761199505	0.01112780403553138	-0.06814106289969993	-0.03272076696582552
-0.02008535529111809	0.003022678101759436	-0.05118868492131539	0.06253198743632236
-0.02851878872442377	-0.007116383618443551	-0.0369950645219682	0.07447042703075492
-0.008088016038154323	-0.00791527687631041	0.0005312854103336811	-0.01335648313701155
0.007820429559460211	-0.01865419779363283	0.1108538584619976	-0.0006740552126179904
0.013199696090765	-0.03392735787585358	0.1260804806461505	0.03350646947448088
0.01422055172071148	-0.03230634006432477	-0.01935035196286983	0.01709359127564717
0.009595165197981901	-0.02109499519974564	0.02475822498657471	0.021937400331657
-0.002712802429988542	-0.01942756621196503	0.03645761083734517	-0.002020620188417259
-0.009607578673335502	-0.01804098640279726	0.01995614373381585	-0.0006365001578310308
-0.02031017141837209	-0.0006950632623158224	-0.04340422991282673	-0.0009344148224945875
-0.0366056028663662	-0.006226698390833845	-0.09230616750038879	0.002508664595207709
-0.05817817048408185	-0.03740223547583352	-0.006330489791055523	-0.01816266373147837
-0.06226029910520914	-0.053726536748083	0.01602704682822608	-0.04564443233525985
-0.02475325852425889	-0.02259985229653728	-0.05919933294719908	-0.05743704189416082
-0.02720291602644377	0.044571424596435	-0.03394167441883342	-0.06779296997215657
-0.03005974369151333	0.03913768670265864	-0.02211948385385415	-0.08305251349432927
-0.01410384939969267	0.001387389812595404	-0.004778958653564229	-0.06034373089588182
-0.008843129355813278	-0.01883975223962167	-0.06234956903628563	-0.009543931493289358
-0.002575358386633703	-0.03459907389067566	-0.06056708309733205	0.05858935925158946
-0.006006650809408367	-0.06400248750612471	-0.07545197224119739	0.16059355729514
-0.006696786387048711	-0.04136508725117988	-0.03541485616645746	0.1081196279422732
-0.006976815572494862	-0.009434000154064646	0.06773892537956085	0.01254454109593536
-0.002963174983319372	-0.02235362377457312	-0.01829419748186924	-0.05214963581082335
-0.0008249289392978326	-0.01035010920553	-0.09072345779122112	-0.09750627281950613
0.006896549412686751	0.0354160535670577	-0.1411477334124681	-0.0899416909339647
0.01099146555863853	0.06490180834035419	-0.06223749226542935	-0.06147301370782502
0.008640165400984168	0.01614183563097052	0.1252221475595509	0.02219419821881891
-0.002283796292336857	-0.0194039522256149	0.1807309681850764	0.0355215487373212
0.005193126432199528	-0.02757726698893214	0.1923323396356376	-3.697429895885879e-05
0.01935272853322406	0.009202260957904152	0.01463602669136754	0.02783069618925624
0.01554185566321425	0.04224895848829672	-0.009312338886158827	0.08955113035019723
0.007276762688673898	0.05362598714985661	-0.03847360789175039	0.1012768266051149
-0.004892466947613753	0.04610729869239892	0.0753503154765465	0.04157815831950148
-0.03410925600346535	0.0182388180945683	0.07220269901286616	-0.06642830028078313
-0.03111939526412524	0.009574826036664329	-0.01777440689084611	-0.08789087351322214
-0.02020784178919649	0.01095638027980546	-0.04067723948472581	-0.07825207063610132
-0.01977681664994572	0.006666610038822234	-0.04944158962301443	-0.08419065003983413
-0.04275735591788086	0.0002907441183124455	0.0325206752375952	-0.04857136778690248
-0.01819069842364865	-0.008201491608184737	0.09916919601463953	-0.009917264599222759
0.01605592720312522	-0.01551323013953802	-0.002407106468095929	0.007681404344062581
0.0269336191880899	-0.02043699591316264	-0.01911533575459307	0.01297381727576237
0.03229516735374661	-0.01979423098655303	-0.04631591823121058	0.000892286236913799
0.03594927735696871	-0.02793295258584453	-0.03545119885883715	0.0130075850237493
0.04097875175026833	0.01046766715194448	-0.008155523915230355	0.02076966650314039
0.03468345099063032	0.02036733648905861	-0.0146333371949632	0.03040417914596935
0.02693402458771577	0.001844663733628248	0.03428927739406776	0.02091546749141843
0.0247238896994166	-0.007213136785287849	0.06018301731598241	0.0009225136883390901
0.03658163005022386	-0.001404672292195456	0.005461355098852657	-0.02648417111042442
0.02754181376272352	-0.01029908359841833	-0.01615074713731384	-0.05606773908018148
0.006666983709304806	-0.02178124826164639	-0.08014894725599486	-0.04384059165478735
0.007178899200467941	-0.02586928371108231	-0.003307296273047536	0.02763802118451923
0.006639168522362374	-0.03655381873349949	0.01564392117904203	0.1119817589350619
0.002668035912898079	-0.05635084645706463	0.04682453696629558	0.06678063312523599
0.015080772963964	-0.03142353477728659	0.01164555789993848	0.01109805868460081
0.01600835639896974	-0.02328322275769228	-0.003863217545939041	0.022327780735342
0.01459471441308957	0.02758832303649721	-0.004502278332904862	0.01379674156427317
0.02691941191761487	0.05451433060319634	-0.0009817355144038167	-0.001942486709187094
0.01972360123925743	0.0845269810587877	-0.008135235320334347	0.01281017247466384
0.009556602903873699	0.05621884589185826	-0.1057590606700459	0.02163538018268633
0.02605984295501205	0.05398791141501843	-0.1442981449361749	0.01397405770891242
0.039994450107263	0.06724010606193492	-0.1536938042585368	0.0009271266107846191
0.04395948800731952	0.03813917874079979	-0.1026213639970602	-0.01196582256163149
0.03460510080915023	0.007908128404390889	-0.01492141496011209	-0.004803520745611843
0.01377185028121195	0.008683551323124107	0.1626957318863073	0.02301244001964441
-0.004669961836598406	0.00768841544518568	0.17180781235257	0.02681189147462963
-0.005614955642702405	0.0005392869543778173	0.05332976729691724	-0.005715369127151058
-0.02076936638177343	-0.005730294595602853	0.05301528980120219	-0.01787747508327078
-0.01197456019778393	0.006198901302568738	0.101098161507766	-0.007872865528730131
-0.006779392168454838	-0.01258146653209026	0.04682090994860914	3.500317196476633e-05
-0.02245358215055806	-0.03364956221987287	-0.02284566900012904	-0.02203430699043916
-0.01925170322047225	-0.03305413904201489	-0.02004636385390782	-0.01503155199092375
-0.003449205468779661	-0.02919638336936406	0.001836145623804282	-0.02010026271062166
0.002953778992578549	-0.03289382081647874	0.01462094850256735	-0.01609603381272478
-0.001275932905737799	-0.05344973623103801	0.04776152037835851	-0.02017736174524262
-0.004171546558419607	-0.04463713013270705	0.0323254922622082	-0.001952453239299502
-0.00139120224534991	-0.01553065127378046	0.003185367061057193	-0.00270567606383236
-0.0008511356247581357	0.01411840617910296	0.01796455649542014	-0.00726081120806217
-0.0008459311426174511	0.01791726583243686	-0.01968205321693429	0.00627176138225374
-0.003461522446301369	0.03762599503826009	-0.01166981078866365	0.03364342774985328
-0.006704588965237881	0.04004139481016281	0.007447692603112004	0.04477631151060249
-0.01255934313327911	0.01211816669741778	-0.01999801943256984	0.04334509561586938
-0.02480572198696858	-0.002851788466428251	-0.08159055485782483	0.0284740754598547
-0.02929995456402169	0.01793893787642098	-0.07827141668485885	-0.008139915431785872
-0.02011885999778123	0.02108267030080719	-0.1304755494495875	-0.06240159832501382
-0.01614856290877988	0.007025261497286247	-0.1965217756097971	-0.09653289718250777
-0.01079040569289513	0.03351491547063774	-0.1684965721653619	-0.1056949569428305
-0.002391117641136733	0.01735127774033183	-0.01640320135005718	-0.09356692101798693
-0.002684892678956761	-0.008704274941147417	0.1224364785014381	-0.03577941259517867
-0.01185962085065116	-0.02035027173756654	0.161381473221488	0.1515610856180564
-0.005187002629254976	-0.009372648290999271	0.1373514193560247	0.1200656585166794
-0.004884556690101245	-0.01510786955138827	0.1942482616392482	0.04420624874133183
0.0158967890091055	-0.01871003638791684	0.0772185165652074	0.08093512129756814
0.01984778585040805	-0.002981652032331374	0.03430236499586026	0.07537667672707196
0.01889149725484297	-0.01611866759278946	-0.03556011344523355	0.03540205291349103
0.01624601967649793	-0.02626600683160985	-0.06217443514867543	0.01540286797976731
0.001356876266598358	-0.02312636673620952	0.00985095883281399	-0.01274149398127904
-0.004299518116261173	-0.01097589785057934	0.03410096922543536	-0.04492098299456748
-0.02447231261280696	-0.0002848531406164924	0.01059359913558683	-0.04951490371008145
-0.03651473536580997	-0.01449930781105495	-0.03402080921557481	-0.03693245936940887
-0.03268981486492056	-0.02204956847928597	-0.0705991638378782	-0.003072404729124525
-0.01638594874801545	-0.01612966343106275	-0.1594944337449639	-0.01399145794339817
-0.02099565873486421	-0.03427093245336461	-0.1486345617622454	-0.05753567210029441
-0.01938289055101382	-0.03007002201625901	-0.1684802422544148	-0.08716507932936132
0.003246775541917876	-0.0278223945908194	-0.1664560535723025	-0.08385302186448824
0.01730851626705004	-0.02925813817797331	-0.01886172414292164	-0.05217292452304587
0.001959816408886481	-0.03014124452918076	0.01509032287999642	-0.07740083966827249
-0.004638237977162005	-0.06075646815809628	0.2547838918077982	-0.04395326286215774
-0.0142806367455861	-0.06675638788352768	0.377248792836636	0.02705177983516188
-0.02578453242145992	-0.06165057122410922	0.2192372743466084	0.1298210949411394
-0.02569843599502874	-0.03047799083872573	0.1221952495952422	0.08116493257553299
-0.009508582280371814	0.01237350489921757	0.02712399698024106	-0.00988390053304555
-0.00569215195267156	0.06321656628793271	-0.005026447115599037	-0.01372027231727535
-0.01797204890052703	0.07430073591803581	-0.006760995733918571	-0.02007985949676894
-0.04698034049474082	0.09284599271593938	-0.03549455649311695	-0.01387881914684046
-0.0326287592889436	0.05249587578789423	-0.06156056273079399	0.007689692598652195
0.03261808900379678	-0.008693727838586024	-0.0673999759906956	0.02036903383600845
0.0543648977947563	0.005587723309101493	-0.08021711208334613	0.04075826132272765
0.04867873663395236	0.0246689790916411	-0.05142270033293632	0.01071347208797317
0.03259739216969552	0.03994585921356894	-0.02178773978020667	0.01041179002793173
0.02290574368886797	0.02348148877312531	0.08485322559591166	0.02025596028729497
-0.002245940021628936	0.009857935317513446	0.02925049461723196	0.006080323985886789
-0.007786962480280933	0.001947007983241715	0.02769114986924965	-0.01635141600407024
-0.03113314252337943	-0.01306611473437004	-0.01420315398871811	-0.02697550877506694
-0.02744740422606534	-0.03099603529799445	-0.03900883982554776	-0.02942409591353384
-0.02213662754215037	-0.04450589784242798	-0.06275401665595591	-0.01313010891910785
-0.03096752507309775	-0.033319278182445	-0.0535180099994961	0.007612733346120483
-0.02790890302439522	-0.004542917145481014	0.00210974234521003	0.03828543267843197
0.005904674757290436	0.05866347157571307	0.04173508886940067	0.04774688157651188
0.0217031215766922	0.06325916240018123	-0.0384712788746605	0.05609006829070918
0.01632890477795932	0.07537086620745413	-0.04538160684873102	0.06612554439724762
0.01027709044753064	0.05169665302350291	-0.01490942136139603	0.008998972041876663
0.01316168527979868	0.02468268218552968	-0.009723810104407407	-0.009860510469192337
0.02736416123659954	0.04563569610312974	-0.05650261733162089	-0.004988114149096626
0.009512189755510688	0.04544003835956673	-0.09964551145632226	-0.008990838573717021
0.00485332172229135	0.01835283299654919	-0.05892448078109506	0.01314382252496385
0.01376012564593809	0.005683222228416021	-0.02093876441274384	0.0452221662732747
0.01198412366158861	-0.04953266392855219	-0.04358570721472997	0.03352953779296208
0.01999880797575188	-0.04855556597206399	-0.03969376852256906	-0.01566418722174717
0.02380112568659717	-0.06521172522677045	-0.1129940401608374	0.01035169688755354
0.02560175451695418	-0.06724848907249613	-0.09755798878636712	0.04562107741299667
0.007569329140725057	-0.01770543136259104	0.02457193609992226	0.01086181881906129
0.007557754725654134	0.02690070060257105	0.08761555457450616	-0.03038310779212269
-0.003870859309606291	0.02747685362202998	0.1562320470801555	-0.08549025755031736
-0.01316880921516963	0.04044792142191343	0.1183714021637505	-0.1111360085139839
-0.007712834143925421	0.06761658627833721	0.08493974495042997	-0.1418585600835452
-0.003028509883879092	0.03168644668016606	0.05270576266862504	-0.1192046246241629
0.005375867154477164	0.01665331679609023	0.05798738131743977	-0.02493728986878519
0.009497040406369249	0.04021159787480919	0.01025714154915532	-0.01438182863164097
-0.0002628455065175126	0.02899701213149666	-0.02703171826214009	0.06395186598349975
0.002107457892453357	-0.002126877203863187	-0.06493046094221222	0.06059718672785886
0.01036118978058523	-0.01520001103940017	-0.06594070477734863	0.09845895844066418
0.009938523289592313	-0.01253094776751187	-0.02009243461741385	0.03372578314207294
0.01239925145485048	-0.01348137054612518	0.009635053088044373	-0.01309770767326894
0.01676733520194802	-0.02308943155208668	0.01717644226341504	0.03064939559280365
0.01194060517787979	-0.03365669160826315	0.04133348683348628	0.06570300933551299
0.01878424869446613	-0.05557505372839006	-0.006405871799423471	0.05360781703595235
0.008987119462700548	-0.04881979152265228	-0.02164706314566781	0.02335374700888392
