0.006239074670373774	-0.001845359600201221	-0.02440343605311709	0.1546921076832987
0.004380425954927021	-0.004522973097877658	0.001975488107860798	0.08468192966629327
-0.0007351418487800944	-0.01179159523078029	-0.01107931505297096	0.03441573431065152
-0.005141555841552058	-0.01029738475474399	-0.049851179148832	0.01573817228991138
-0.009324908575077919	-0.003411527051586965	-0.02705805533184368	-0.001069479905269753
-0.009893802102668405	0.007470076225581814	-0.007917776096286352	-0.07341563397624348
-0.02266113952396602	0.01044436648562796	-0.03702088238582169	-0.08448108009461401
-0.03187196355019131	-0.0193143835588893	-0.03702591188941796	-0.03078604284055255
-0.04239051811232437	-0.05316698256119692	-0.03605388545789699	0.04059629964676833
-0.0379380286450277	-0.04662457577023943	-0.02701184555144416	0.0320692646133359
-0.03155900672122928	-0.0369855916256662	0.01723471146058677	0.03467009800410277
-0.01003927358754395	-0.01438291662720653	0.0164619240637776	0.06646843282946896
-0.01479482544896143	-0.009558058639302713	0.01584308104207774	0.06171136736613513
-0.01030002511130187	-0.01113509081791854	0.002994338224607109	0.03267449196816304
0.02259892049997423	0.006519244194331195	-0.009132639557343362	-0.013977592274275
0.01422212388140467	-0.01767143578150135	-0.0104129894545704	-0.02241036476859047
-0.01712932075848232	-0.05076179716481262	-0.01003069200239934	-0.03937333882618474
-0.008031533587002542	-0.05952905928162946	-0.007236022987447184	-0.0568651691707744
0.01064705401099083	-0.0381081129545453	-0.01135858197593203	-0.03782368305286388
0.01791400672035789	-0.02608446229955231	-0.02017982758200782	-0.008218775098694337
0.01588954828142706	0.001635445039088562	-0.02698001515448213	-0.02197893789032782
0.02119523359270397	0.02323551108875526	-0.02139092799267006	-0.02055343753174569
0.01750365143694952	0.03026023569878565	-0.01313721957309257	-0.003918255244984454
-0.002680866751281013	0.008807503419220456	0.003411473005353724	0.01696979431116724
-0.01478474485574258	0.01564387709972976	-0.001586483740630529	0.03918621961368291
-0.008825554714614518	0.009241375325276654	0.004794651119199201	0.0428721947531129
-0.01471714697923882	-0.0112452993715787	0.02302554999329365	-0.003512169524957631
-0.02656073702083919	-0.02325344534336997	0.01912525269821161	-0.03860828249777352
-0.02918376444692813	-0.007744725266448559	0.01469051248898017	-0.06975900601574665
-0.010351855509501	0.01596827664291977	0.02043315197422693	-0.05149869996459659
0.006175969610772662	0.04454156201008443	0.01879546867533609	-0.05643487174947503
0.008709284871458353	0.04524891662043255	0.003563855381574089	-0.04821101891999732
0.01876276964998786	0.02795476718393356	-0.01966862368647995	0.02958845971597119
0.02111251868257526	0.02839968179634446	-0.04856164053310774	0.1322459094123581
0.02847293787785736	0.02830285744096895	-0.1048526648843176	0.1405467361286721
0.01651593250572475	0.02202592138501948	-0.08796484928299576	0.0523666555526931
0.02144844765680867	0.01241122487420318	-0.07542635435112391	0.03076498603309321
0.01560243041872193	0.001540612104736719	0.004257493974047857	0.03693180244649241
0.0140858466183212	-0.003244863573781379	0.1754126595714645	-0.01161312598361074
0.01738179668150271	-0.01373814559428267	0.1455039258537838	-0.009674522461488698
0.01537182187894423	-0.02460794144963436	0.1136319575939866	-0.005379405505163122
0.01777033884213342	-0.01791454858712331	0.0574137264761532	-0.01933145697236366
0.01406638186954993	-0.0251073131917169	0.02617200982257323	-0.02109465777455799
0.01934896460726803	-0.03327219858874174	0.02005361692159461	-0.0170988523278688
0.02349912023977403	-0.03671914480296729	0.01246127450689104	-0.02094310407556091
0.0110448309644135	-0.04079060844813975	0.006704518457401237	-0.01379070721595319
0.003566231710526817	-0.02574385682466831	0.0001867415346964178	0.0006795552724387449
0.006658215052284758	-0.005919237106131379	0.008556155260056035	0.01475282172278113
0.008681553041738174	-0.01050366740363065	-0.01672254049533535	0.01829474590171526
-0.003281599735219318	-0.01521995413404565	-0.03054616746066087	0.06862438261413718
0.001751992348706682	-0.007015173028745458	-0.01933514145102467	0.09895470138932738
0.01953528414345315	0.04822074260624386	-0.009298666991183592	0.05903514791764704
0.01455583882976172	0.08199804045423842	-0.005176186245407815	-0.01629742963167776
0.0019833953968303	0.07202967986880364	0.004498323463645347	-0.04996358388182574
-0.004374252497824339	0.03910404457479296	-0.01576848131749045	-0.08801131783378371
-0.00691520217532461	0.03273673535090526	-0.03443206208469805	-0.06802465666596198
-0.009474397827669925	0.03331774734965873	-0.05946414755775887	-0.03968737353304501
-0.0007141714777982746	0.01974678810199089	-0.06504143825590782	-0.007779211835954038
0.01731700309156341	0.02205710563804861	-0.04706297650570043	0.002104158695350637
0.02583283108216862	0.02255599158303056	-0.01268073648249836	0.02590289342881713
0.01981563333435199	0.01050060316592813	-0.02223718806464617	0.03342843375036149
0.01644965175300515	-0.01192236999715296	0.002611872066303641	0.007057275944259117
0.006414793333264873	-0.03095892338312982	-0.003849417456032723	-0.03706762308026548
-0.002853871148752568	-0.02877389839880191	-0.01393099548741994	-0.04558847412153035
-0.01478434775052921	-0.02178292687058244	-0.005591894290758382	-0.00869519581782254
-0.03280201979156589	-0.02951720829330473	0.01234827588961522	0.01137434769101219
-0.04806081993699458	-0.03577165390455282	0.01649756973434731	-0.0007036126865163807
-0.05614794575161227	-0.03793072372956144	0.01750037060681834	0.04935943296593948
-0.05270786404930571	-0.0438637075026096	0.01187747447975796	0.1020523980210033
-0.04964737707703862	-0.04693148946065437	-0.002847301478829015	0.03249624052100776
-0.05905438026258311	-0.05291212629788741	-0.02656914706861055	-0.03111112248439126
-0.04149199002379533	-0.02133696795955085	-0.04735850707678346	-0.0386240349679158
-0.03632087961964355	0.001717909513438307	-0.0297412122579589	-0.03306674428558386
-0.02254149994619779	0.003207853033298885	0.001132636538470385	-0.01899935653631563
-0.01505991281819957	0.005059473710548972	0.002650016766502293	-0.009138926179978454
-0.005223186310093056	0.007730726628115298	0.02045016688844012	0.0009434836241956945
0.001751809392970777	0.01505980062322055	0.02687908004737226	-0.02698007550215028
0.003724545077571663	0.01591511708439778	0.02385755952364839	-0.03347862786946185
-0.01126643934264964	0.01126210436619831	0.06990718969407377	0.00550428649439407
0.001000438431494459	-0.0167852468757637	0.04435441768819658	-0.02865667486330899
0.02074565859494565	-0.01627244123295328	0.009883467372720084	-0.05050091562971135
0.02416387030340701	-0.006422000996945738	-0.002872650685927416	0.01101064774287579
0.03077710756525763	-0.008779215732275546	0.001520087653698302	0.04732322167708855
0.02748781452230044	0.001139642474484113	0.005763058253136424	0.0415027664150393
0.02879493108105634	0.02530175285118116	-0.01775648991452834	-0.02598897927569189
0.03899729450657718	0.06864627042174595	0.01223643583502767	-0.02622709449001001
0.03943875619308421	0.0534916713151037	0.02876035876233425	0.005677729316034799
0.03165207785546052	0.03287520281168679	0.03389723951278404	0.0275945756712338
-0.001212178114106191	0.008844788683755673	0.01291923519109696	0.01172011563985177
-0.02333461069248965	0.003789835029815794	0.0001716000557073624	-0.00449276284410072
-0.03421146604042675	0.001231562038569496	-0.01684901995653875	-0.03472355741231175
-0.04907602955789821	-0.003506367960072432	-0.004936854152957012	-0.05506618611468245
-0.0454112112862429	0.0009666807252574418	0.008111814173193446	-0.05812301781595804
-0.02627652681527217	-0.004225059571401399	-0.01056799372400128	-0.04569186730737484
-0.0152733818356142	-0.01097385765821975	-0.00113416088815533	-0.04596249621129762
-0.004843236417619053	-0.0175965330595354	0.003003603078165842	-0.0450498412520122
0.01287314202704972	-0.02746668536485556	-0.01277220748976718	-0.04767918001772415
0.01788984864850041	-0.01828201792705417	0.001343835952559936	-0.02620891051914431
0.009390227195697104	-0.001775037347892832	-0.008654791596824592	0.01288889135446211
0.0151492829370515	-0.004485780602794917	-0.01361203305757201	0.1112047396975017
0.02057428412759477	-0.004040587900516093	-0.003066301974713963	0.06586932202016459
0.01781329808678897	-0.006867260621785008	0.03937044479414028	0.07420141708175509
0.01528925608344985	-0.004712650898565847	0.0247187661268234	0.06117528202436888
0.01931463708906913	-0.006783622993904874	-0.03605099891511653	0.03464994846663248
0.02604267931636226	0.003003465862618776	-0.1005183123208608	0.01794189315038934
0.02908293072471869	0.008512224205471656	-0.09021207054414296	-0.02179692554531626
0.02393345095352246	-0.0005769215546115807	-0.07657641237549546	-0.01820710802761343
0.02646853844897696	0.002563636111447816	-0.03178701866809687	-0.005606224670585245
0.02321875633144837	0.01270807472134938	0.02514775568460203	0.007833247522417916
0.01964594006569387	0.02845270039496421	0.1227688244464863	0.07201442694488966
0.02053826139074811	0.03858069217257053	0.07549364753288278	0.04602787297670288
0.02289329153989379	0.04303871412036839	0.01029027147094567	-0.02210436208827
0.01547261319323629	0.02285385050668008	-0.01416601551722202	-0.03677571465060381
0.0001679479660422664	0.005828053393496781	0.002637692652817764	-0.001211272721538019
-0.006589518357465489	0.005466024537403494	0.03444622178210663	0.01270698404555192
-0.02406266708821631	-0.0109623903599134	0.07112053606376473	0.02473275798325024
-0.0224443332661789	-0.01638515022180024	0.02230553598254611	0.01497374976050061
-0.01042669173915781	-0.01455010901416379	-0.02779727416582991	0.01034893188394113
-0.001830289258445163	0.01922484256048588	-0.03427945826470712	0.03161231378803521
0.004237199432612347	0.04961469607413762	-0.01714834988770828	0.02078272925155223
0.007429404101523462	0.04488206113388944	0.01216074280426619	0.03472352482517866
0.004167918790536664	0.01237331317095533	0.009749371803429186	0.02889351226787803
0.00867669754227684	-0.007687521385764268	-0.004488582814274212	-0.05699133154939754
0.005068710385947603	-0.03071215739647838	-0.0236709511385484	-0.1160681958746386
0.01591734202360159	-0.04606724253084351	-0.01200526690260199	-0.07716680093776696
0.01549099131511989	-0.04480008691051132	-0.01199798761225576	-0.03187830525590921
0.003551102301037844	-0.04314091493945055	-0.009628186448095467	-0.02106848521330437
-0.003987094098141845	-0.03200010179011176	-0.00115984483884001	-0.004304365739663104
-0.007397404477278073	-0.02413823214191218	-0.00783059072521217	0.01326306019093977
-0.007621118465453838	-0.0166196071637956	-0.007301226059076616	0.01145578996983011
-0.01667859800758552	0.01805815003886789	0.004787752833155657	0.02039870390069969
-0.02952586097918256	0.01900511314824908	-0.001546937258258634	0.005585355654873589
-0.0393223499559844	-0.006968945569654014	-0.004773831000959582	0.003290641925957819
-0.04648847801396529	-0.02599870467779294	-0.0008855109889611372	0.007284171291530183
-0.04958612655170045	-0.0309601875980248	0.001821052564983197	-0.01774446106668503
-0.02760330925261439	-0.03372811488514781	-0.003319387931691673	-0.04435779263899488
-0.01104736923354732	-0.0367088821821758	-0.01020327351195676	-0.008984675953941578
-0.004147643104674935	-0.02807235808150847	-0.02102221327679352	0.02395600231656258
0.01365013790203656	0.005644284158636145	-0.02402614421455175	0.02563904077999049
0.01029504584904203	0.008234077743161674	-0.01730700188099122	-0.01484317508233392
0.004361899858353436	-0.009074314517823423	-0.002196552311590012	-0.03759393556813263
0.009315049497223168	0.009479486854436446	-0.0189171584183522	-0.03236489253462802
0.00164754837263878	0.01396211630464902	-0.001900522025802538	-0.002476763804674917
-0.01080587246541632	0.02354698606874227	0.01603467860823617	0.01419364973908731
-0.004593135075608737	0.03911009871345733	0.01579285542429452	0.09469224077493089
-0.007610414064717593	0.05769296321833279	0.01135507486214579	0.1053727825560574
-0.01418085151703101	0.02491221946567827	0.01603466188461232	6.865639613097838e-05
-0.01262376448290824	-0.01467829767348176	-0.001458210129159672	-0.04359158616836079
0.004972646245479388	-0.0226921610256532	-0.02243093299823587	-0.03584855281652801
0.01443657324127004	-0.02105214671539829	-0.01435527845861251	-0.03515868922093315
0.0149634946612593	-0.01257698324825425	0.012165142413814	-0.05967363334434961
0.02426128406893018	-0.004738163662219393	0.00461150237482194	-0.0484294759590051
0.008189528860728261	-0.007358628645272202	-0.002765220989599014	-0.0333244632035793
0.005096263114412523	0.0004931577596273515	0.004309294593341067	-0.01067318054257227
-0.007225158566823306	0.0173939354444398	0.07333689580164254	0.06508459461112472
-0.0214743563012344	0.03250858225537525	0.03010119705587944	0.1010301875361641
-0.01705962097474747	0.01652483442418962	-0.0154384463224744	0.108933923175251
-0.02329195482569697	-0.001666268684065889	-0.03682406948508231	0.05092859827034572
-0.0323564906211592	-0.002466962411619519	-0.03205930068374379	-0.008035406594311744
-0.01428360742242729	-0.003930881913627925	-0.0620428893582616	-7.226660989389649e-06
-0.02030545688020784	-0.01912506552316506	-0.06736888642797766	0.04131039425396643
-0.007793601310880524	-0.02844952959635155	-0.04402539358659536	0.04166003973068652
0.005952142935445313	-0.03978285490739082	-0.0439930656905153	0.104660098439037
0.01242225304366521	-0.03302533365414073	0.01663015461581496	0.04507963257484213
0.003188580163069746	-0.01377785552863689	0.156126065983051	-0.07620185307021034
0.01452378607409842	0.0108025089916159	0.1804996199732827	-0.07946360329695944
0.0214094114311762	0.03212439154786696	0.1521556704496746	-0.07231691900314449
0.01853127163250439	0.04487266524697928	0.07788919551104205	-0.08116807986312459
0.03218884557978131	0.06548337057339393	0.02384406931749845	-0.08521671291458971
0.01865432133883167	0.03853492801403723	0.008413087301852668	-0.08280811726161402
0.01509212230599426	0.03877716153035377	0.02445225652743003	-0.04405611067506889
0.003182510226341965	0.02240767018519259	0.04487279412125637	0.05016040674221622
0.00233956821442077	0.005507128217714193	0.00152409827822927	0.08984434284397007
0.0068706965027917	0.004810748911449757	-0.02830226830052477	0.0512573306264331
-0.009027029425364484	-0.004269095125610281	-0.05799418243423043	0.02072630053854008
0.001173418969787203	0.01199512204177578	-0.08119015818975349	-0.01116393307816599
0.02097516639290397	0.03201413163367815	-0.04578912160211755	-0.02707811609237416
0.02485174567851689	0.03055456164066602	-0.01478408912869554	-0.004939880674683346
-0.003130778316286471	0.01759941842973717	-0.01407218966298765	0.01027363683349864
-0.01259909535549191	0.003463731744643762	-0.03368300869196506	-0.01759815975649341
-0.00225992166626609	0.002142167629463396	-0.04487248619735112	-0.01311474025149166
-0.004464306790307565	-0.01162529720206417	-0.05175595700229774	0.02127335672644835
-0.01350819980469017	-0.03385625255522529	-0.0535714328242084	0.004614523316091772
-0.01160406664032396	-0.02372955507355362	-0.03790907437109525	-0.03417957435453983
-0.007580559113310412	-0.01133791948286419	-0.04643082189011146	-0.03994906909387848
-0.005925453362539542	-0.0176007617497356	-0.04000659866820762	-0.02775673288084751
0.005718862102159745	-0.02443153942007008	-0.0444375724274505	-0.0321121189935195
0.02896377236643867	-0.02080783167882554	-0.01150252455944396	-0.02224253252980028
0.02807437079530046	-0.01664010628496595	0.0260559606521166	0.05074586253425618
0.02392951386361028	-0.03487220579860466	0.03067976225270456	0.01839535909413305
0.027186438000034	-0.03549668326727602	0.03740436555975332	-0.0002544244514443828
0.03254037191872126	-0.03738990390779436	0.02596222001137533	-0.02889976815092368
0.01970557310851239	-0.03285315486639979	-0.00297858065008722	-0.03403964250998875
0.02268452679676941	0.002336289430634929	-0.02757338762561138	-0.0312783713177477
0.02985127336646635	0.02987019640763321	-0.04264313034954666	-0.02918689633450649
-0.01466543740488647	-0.01106053607400409	-0.03547363042180906	0.004891620356360134
-0.05280403405389832	-0.04322774138585398	0.01981424889539807	0.03957950397048011
-0.04626285544672071	-0.0529989369936259	0.03583962961805758	0.04691468160064809
-0.02486590679199133	-0.05861619435997558	0.01183973146575182	0.02956679112600042
-0.01775757970009779	-0.03233766935337953	0.008517280014056395	0.01878367320792381
-0.01670212593238985	0.003803143635992052	0.0249597195484008	0.05154321078031897
-0.003113170257330266	0.08328647049787184	0.02721553049663955	0.1107341747546714
0.006173598670326652	0.07449585432425354	0.02399641153993578	0.07538690948941526
0.002747705249878372	0.05566425751217825	0.008656775499550816	0.07090464975324716
0.009471635829925568	0.07177625085531233	0.001927957240528114	0.04575109167318145
0.01733886804981192	0.06174664703038458	-0.01353233806660553	-0.01771505699773534
0.02445632184050732	0.03882241657245444	0.002250055189664853	-0.02188921667403991
0.02904573216956452	0.0381215975741076	0.01405147444218834	-0.008979134189986228
-0.008300565519659943	0.01050547544495186	0.0005583736359266579	-0.02951790590711395
-0.01144534442334176	-0.002208895692203502	-0.03482640557156037	-0.08092937237973369
-0.007359926953571298	-0.01720779633311328	-0.03561146371602505	-0.1498500850474329
-0.01074282419751719	-0.0267876785785911	-0.02718431471801129	-0.1374651317819501
0.00110784917070818	-0.02850408094317992	-0.03160487912459182	-0.1185889198559634
-0.0005193450858642668	-0.04990697357914491	-0.04747447413971467	-0.08546353301512044
-0.02007331171301252	-0.07119307802732786	-0.01568347012383652	-0.0430853715462557
-0.02490464909893309	-0.06408116298817536	0.05253919981693699	0.02428379130976998
-0.03388043934290826	-0.03712821888945234	0.1052520723396348	0.09100065143073327
-0.04443247052252748	-0.01171233382464837	0.0832696927783768	0.09685361362117859
-0.03418808601102984	0.009531616958547378	0.04046864075853062	0.0709789401986161
-0.02431621134761572	0.05458413309118486	-0.004062364111180245	0.04012386852493071
0.006914623948088601	0.08220030102850326	-0.08852342332053691	0.02079051358282362
0.02024009282495231	0.07776724151007906	-0.08763747192512351	0.005292121286193059
0.01438306623160497	0.07061063255144379	-0.03529628270834282	-0.02359816735092659
0.002280299414329235	0.04813607381416363	-0.006974816920004381	-0.05393280304870025
0.01482942425644122	0.009665596005659529	0.06016343821228715	-0.04292722259314768
0.02036587275173776	-0.01627429738449638	0.128311686222041	0.01129584885752197
0.02351106098028794	-0.03492271105032029	0.05698666612949139	0.09983490945366741
0.02190713818208024	-0.04109691340547184	0.01469612616267372	0.1984719236247569
0.008334620713905448	-0.04361869767117949	-0.007236087177098584	0.2017304055028298
-5.794079827600495e-05	-0.03657480977400208	0.02073310894742892	0.1294501149051938
0.00364049796617558	-0.02823929149700099	0.007954605911413355	0.02790933430729504
-6.028351330012802e-05	-0.02402251672122909	-0.01207768914953079	-0.02538681777029564
-0.001950587598111107	-0.01682335971652305	-0.001181145256747948	-0.0966738745376573
0.0131691111108566	-0.01845617766043819	0.005636055919806681	-0.1026243910832666
0.0238845046944481	-0.02724997967454466	-0.01062250860182913	-0.1018401517430955
0.01019718183660901	-0.03917198731436392	-0.02520072292888981	-0.07480505474963134
0.009428348511830014	-0.03596961074667595	-0.008796787836350444	-0.06961525703064322
0.01588602120316108	-0.04161299311839336	-0.005942303591425165	-0.08653425594900904
0.003133220328550987	-0.03395073575186842	-0.0216382136351283	-0.1017835324951848
-0.02294912998073141	-0.03401758940687537	-0.01287592063199262	-0.0807419610843377
-0.02305005305636453	-0.0001425514080788126	0.0004108864514618103	-0.08009347643724749
-0.01349010835171913	0.01875682104911177	-0.01307437632024433	-0.07162364212303744
-0.0235419578029448	-0.007868598042056257	-0.01752984706825705	-0.06174294728121476
-0.02338382313418359	-0.003989853740385167	0.0325554213613707	-0.003642715250762011
-0.0212842075713063	0.006716679970850829	0.05224694740954383	0.08628401542251531
-0.02051307386937018	0.03318835495271832	0.02495094688938681	0.09381606441131597
-0.0332598654439707	0.05588362454486253	0.0005817996796902364	0.04236053024216765
-0.03704958701595952	0.03831827741088468	-0.02382588221250818	0.02727681679858989
-0.03430817740320539	0.01607263816123379	-0.02426177922774646	0.04737264012711913
-0.01042168556469664	0.01601138123481289	-0.03212734976365412	0.06488570340319352
0.02771395620592067	0.02230786347555485	-0.003510325708214227	0.04922463917356681
0.01552682783653306	0.006657447282159915	0.02152660510714886	0.03778477263297939
0.007328300418414226	0.002252136052388197	-0.03578204447032903	0.03427682604010761
0.005621336521160502	-0.006524960146653584	-0.05475846743754138	0.02592351485058614
0.003592267756814652	-0.02106441771418842	-0.02891628711209862	0.01712535847834379
0.009056779502899025	-0.02359748677962733	-0.00205246301209919	0.008387711991957472
0.0298726983726802	0.005219345536256708	-0.01073030301956907	0.02533968615390673
0.05769312228936054	0.01276552533550932	-0.01035648962791581	0.02904829808097208
0.04128228228805026	-0.001668472964904587	0.05354584317569931	0.01670327560986708
0.02236380687947083	-0.009026208818286131	0.03716593954034621	0.01261847182673379
0.01609365645065165	-0.01434892238736215	0.007516487857807427	-0.01458081231623071
0.01450775625784494	0.01523140676528203	0.009079479355372297	-0.04944156849176264
0.01941370050655643	0.06098104201866636	0.0005654385740655118	-0.07164724933987669
0.02184259669977505	0.08789152156003399	0.002040171083859203	-0.03421130427135859
0.02207539879714491	0.07471874500922378	0.003327970899471382	0.004293697078186769
0.01739811074601652	0.05907517709927731	0.01100164882485604	0.08577119507612371
0.0136446336172046	0.02930568591776976	0.007548851157283563	0.08333455068318701
-0.01292396913854161	-0.001287683877296841	-0.01087622069739104	0.06271429510186897
-0.007944933814386193	-0.01446413913486887	-0.01136215969377398	0.01686714809119861
-0.00251411715248579	-0.009333352269343306	-0.02278821163952417	-0.04937224269325536
-0.02799472535922363	-0.007252214381556744	-0.04361972033928623	-0.04454515372886496
-0.03616530323015813	-0.006979149507846087	-0.0244914365673346	-0.0237161806771531
-0.04222016941343906	-0.02438754040278795	-0.01488991813172626	-0.04715160305249894
-0.03422622078630202	-0.04115881219682845	-0.0002813047144033659	-0.03848163059105546
-0.02878831911301162	-0.05770898996955812	0.0008272857661157483	-0.01230610916614238
-0.04161043665376839	-0.07270648919986177	-0.009427820822594858	-0.01012303304515515
-0.03536670049045006	-0.06917811697919238	-0.02052330656494158	-0.01536048444964894
-0.01179056374903621	-0.0334066570461649	-0.009913320733871077	-0.009168331328664637
0.005786523774583501	-0.006977613859773607	-0.00297818130815727	0.01277325024891033
0.02452121883407942	0.01122339884364645	0.01704926712592854	0.008655169508469262
0.02334824672480836	0.01467186670572962	0.02063141101924125	0.009132132167429812
0.01994238596547884	0.06417931108699658	0.01634814953590414	0.07156580041406506
0.0146465659690554	0.07126422549590992	0.03163551031245838	0.08511336444140413
-0.01270969657847947	0.04071013784629277	0.02151056713615267	0.03643041790368644
-0.0230959896749117	0.03969752338168311	0.008463767026680292	-0.03236413132825255
-0.02226528837869501	0.02926908716079851	-0.003237009127156512	-0.08514870428681266
-0.02209650223405643	0.008917308917974471	-0.01266985425346141	-0.1155705242245768
-0.02223183592950263	-0.00832435327070233	-0.01320112461283441	-0.09311173111488229
-0.03233257053797622	0.001784372984326688	-0.01843322794839259	-0.06788700186696314
-0.0226233854005277	-0.01566030766689825	0.008383710909102489	-0.02335465925302858
0.006492516412201621	-0.01186589906109705	0.03219890034060361	0.0206698786300676
0.01546082592109234	-0.008772862203429981	0.009712114700523166	-0.007635156708465433
0.01648363592276232	-0.002605277707358484	0.0126640425677949	-0.06431482990267817
0.003094397229722838	-0.01157131654387052	0.02530058754132809	-0.03395068080971284
0.0003757454110098321	-0.01398770207505159	0.05254197921271223	0.04657026095437725
0.008083908933871941	-0.01915987594099152	0.04020392391187435	0.0584302587420407
0.01509698709798204	-0.02835186470766352	-0.005805071189170132	0.02798823548368929
0.01408812475535759	-0.0418710756160466	-0.05407743824375448	-0.01605018862507847
0.02620891247161618	-0.01380794228746949	-0.07046436522858876	-0.02949610715573019
0.04090429472678331	0.01003305464599503	-0.0573142366571887	-0.002201408801910301
0.0474595977622892	0.02078746793165552	-0.03702370222610849	0.03523392447723234
0.03811085603875448	0.00671526728882969	-0.009820347436498527	0.01473506513552377
0.02262877576450454	0.006446295462533709	-0.01365423933460584	0.01031026817761018
0.01185390337427579	0.008407666156371221	-0.01053371564066707	0.03469507477194211
0.01516134654854937	0.01521011828135187	0.08432661935049489	0.03695429090395477
0.01497199341746226	0.002214436413311075	0.05126055021223558	0.02453953022261211
0.007228291942493804	-0.01130746193986261	0.02280763899367285	0.02782763361210737
-0.002704406384769608	-0.01078856046306001	-0.02338620872998896	0.00925646937783544
-0.004612847107051916	-0.01506504249103766	-0.02207278764339218	-0.007353885685117662
-0.03011608527748101	-0.01880715284339691	-0.02388180602468083	-0.04855917801446953
-0.04153723497295325	-0.04072389988079049	-0.0526329103702625	-0.04688958302425715
-0.02402923886573995	-0.05671587296523568	-0.04625805202066328	-0.02710553441635882
-0.02325089827850532	-0.05063965751029135	0.05035578266057423	0.007416534741149417
-0.02981529792036507	-0.0558174608633264	0.04378646670244316	0.005426190143883624
-0.0249123838960791	-0.07107726096262586	0.01035234591041863	0.07774581437598739
-0.01616371435708323	-0.04783414006322336	0.01945232047892375	0.05689235637028964
-0.005769059972792721	0.006773276874409135	0.009960803998535942	-0.012868659246501
0.003043886899938131	0.02690480052689371	0.01000343505281738	0.0004000059242890118
0.01926406209777991	0.08022244416150626	0.03826377183645429	0.01153702165200467
0.006758946641572196	0.07702761271900864	0.07001686026449912	0.03314676539890984
0.006013177105317256	0.05756277613557596	0.0196456908298961	0.01393635547128929
0.007581390653174368	0.0590415184979709	0.0338604354439612	0.01582653940365271
0.006011410179355118	0.04949585191693209	0.04842051604479851	0.02679158715903888
-0.009225021515685074	0.02077439042893383	0.02876973019091207	0.01996737152540692
0.004679898114040104	0.01440618002318292	-0.008765367325055179	0.006475565415113631
0.02187166167722715	0.01863263888235045	-0.03535636077998994	-0.00509623604421933
0.03365530974568757	0.01497910649539984	-0.04821054012177885	-0.01189036653079499
0.02924944912012303	0.002884659807980089	-0.05086655223281835	-0.0289497702936297
0.02331160523507447	-0.01873701718718047	-0.01107281467344524	0.01010501329049821
0.01789757694242309	-0.02588520612118496	-0.02185962252229323	0.0508968484887743
0.01093654272182208	-0.02168127564076275	-0.03199383289371199	0.06325896741754948
0.001508413706469119	-0.03578512149783421	-0.0165375199453523	0.02827625945139215
-0.01494721698669104	-0.05503587803074247	0.01973416784476771	-0.02594293424103073
-0.01501603533340136	-0.03228512262795547	0.002886551378052632	-0.09817888968075099
-0.000367826390333612	0.01667286193501197	-0.004644932267229613	-0.1017458693683497
0.006467548176272387	0.03176985447692816	0.003468908766780779	-0.06829022940648201
0.008586289226113744	0.03113467139443841	-0.001228145148198527	-0.01688217970330093
0.0152127054453481	0.04619367490701621	-0.006416785625063853	0.003276908696919803
0.02736504350401386	0.03391294950475846	-0.01263867004986826	0.05133786917780256
0.008710590367779276	0.01043639211219076	-0.0161955432822964	0.07566175004021392
0.005439840023895206	0.0008323759779318707	-0.03566810104140868	0.06705471771212067
0.01449012081917351	0.004947173957836048	-0.04047446451614856	0.03197327462745746
0.008761299575563311	-0.002959351243982046	-0.02453217904442972	-0.008754039854000459
-0.0008600140265864777	-0.02050007092073492	-0.01910687666253699	-0.06039150909240779
-0.007701967046006753	-0.02537105242562076	-0.04260267390863917	-0.06992212834665129
-0.005763311736058909	-0.02003895549028836	-0.03495823450928449	-0.09511644196693705
0.002686091270973704	-0.04483435993273036	0.0006143779734283728	-0.08698321082790318
-0.001143415757925665	-0.02448680457857607	-0.01821600141461601	-0.02219075226515398
-0.009847358146975869	0.003904175403129008	0.01613789263162075	-0.007837565686717408
-0.02148309695201487	-0.005212028370911512	0.05002646001403279	0.006033879085249231
-0.02690422719793856	-0.01486162971731103	-0.001542567799908406	0.005672666314265548
-0.03386885243168278	-0.02177966523151922	0.0109419250113856	0.03567639064155604
-0.0318130899786674	-0.007376478323924665	-0.01751005926555097	0.02022581662574315
-0.03486868174083858	0.006526902304195045	-0.04824963639973516	0.005171921719206781
-0.02779230801571789	0.03516518538115846	0.06214175224585528	0.03937430730689109
-0.03607882774091437	0.04170782466704918	0.1029144540438973	0.02787997695528076
-0.02768264863387906	0.02167238921412343	0.05712920622266507	0.009859301537955015
-0.02750519449648988	-0.005879400284850204	0.02648181463173728	-0.01492687052294796
-0.02985004739084716	-0.01462572488459593	0.008285915634130923	0.004343965850936943
-0.01235157703213615	0.0006944791838080491	0.008675812230113666	-0.002772990094881101
0.003025403571434926	0.00760509841823471	0.0183095732569487	-0.001089933047747346
0.01887571915688014	0.01930091247222402	0.044003888175816	0.03579175860057674
0.01490324649088449	0.008970970474434481	0.01689587639489296	0.03305664334890626
0.01491884988730571	0.003427854893099139	-0.02683666499028785	0.02020494508408929
0.009235279115384451	-0.01710660612803276	-0.01509525495611325	0.03752885445289055
0.005407318698326989	-0.01369647614233051	0.04772564779371737	0.04699298297479688
0.005812596216607208	-0.006834284194276859	0.03487573742320005	0.04538358064470261
0.01053328675371143	-0.0001590725366714753	0.02130383824304209	0.03131970355999442
0.005131361779150267	-0.001199994050253141	0.008516358740217365	0.03072208933252336
-0.001499879849121548	-0.01589423196788123	-0.03512806475500221	0.01210279351010751
-0.00568651979061775	-0.01764808812779176	-0.0689667221794511	-0.02499010500040848
-0.004915842373440988	-0.008504547738585439	-0.076199768616615	-0.03940167416692174
-0.01102708304194446	-0.008775524880629704	-0.06773783890490664	-0.02404259555463785
-0.01553491239458878	-0.003759452394220013	0.007350669310788272	0.004997279949139885
-0.002725533209702387	0.01355464701077014	0.04267546288449008	0.01370266106476863
-0.01218749228644382	-0.001541004105168882	0.05255610585167642	0.004296062341822329
-0.02629475194321601	-0.02018949655283731	0.05430185164347966	-0.009556689875839382
-0.01028346223543441	0.01240408304176978	0.01137091907270914	-0.04720919525917509
0.01028187441479022	0.04147284761566197	-0.04574075711923784	-0.09915094690847824
0.005084732716975845	0.03235379563922337	-0.06519255710817819	-0.1077182483220144
0.009391050671557741	0.02058092478105971	-0.04877594402310636	-0.005363899428395462
0.01636747564299789	0.04757522467687655	-0.04597814898256616	0.04918274226435124
0.01189141247483426	0.06939284048303285	-0.03523500529117576	0.1043527606106793
0.008089767127929802	0.06394817778288256	-0.01367684883381423	0.07360869530068602
0.02225390538749456	0.03872028221094363	0.03637593552330193	-0.04504990871498676
0.02606124505772821	0.002476682065314368	0.07146819960665102	-0.1072005194864435
0.0301497863060237	-0.02802452690835868	0.0393416867146373	-0.08114296845859302
0.0288162785247619	-0.03976432170192828	0.02184451657113244	-0.05555619004497489
0.02545583297917413	-0.03195322391344166	0.007283247103741743	-0.01808786509121428
0.02145451848400409	-0.0267746484584269	0.0004053116786862824	-0.000824651402383753
0.00853573447868578	-0.02315147071519455	-0.01440262036874917	0.01455216826706229
0.005898677135083186	-0.01686183879537275	-0.05348644680521266	0.002548364550773731
0.001924043390482499	-0.009300309206212033	-0.06489163487190862	-0.02263376555527691
-0.00236279650098418	-0.01488287078579752	-0.04523063189880797	-0.02013358444152765
-0.02317035588172513	-0.04652344440200261	-0.004129539463643455	-0.01357656107519071
-0.0251221784978396	-0.0584346872439795	0.02497771872229895	-0.04989071781373081
-0.007400434285751951	-0.04760164565134866	-0.005405528357514761	-0.01295363460497476
0.009323266403035652	-0.04001005858010165	0.003857977964060027	0.08154541795333117
-0.004056955446328532	-0.0494098654795127	0.001627371483608578	0.07868779039820646
-0.006494748589862751	-0.05480556694435931	0.02089132345919224	0.05133609836298028
-0.001546399664372426	-0.02036122632102558	0.02650184914263052	0.08336406166169938
0.02736141854075765	0.04101454159243937	-0.003701178574851429	0.1249665856003184
0.02307996664622001	0.05128279252087484	0.00157499667294546	0.05338658005472334
0.01307475441925915	0.02520680860664664	0.02040440384737252	-0.007469300067861993
-0.00147479227084021	0.02492879952210554	0.01656700670829082	-0.06412398326235182
-0.01532596252605677	0.02784478175874098	0.005398254612467067	-0.07106164314958884
-0.01938157959671558	0.02797527977616966	-0.0036343492755751	-0.06914303875166945
-0.004937185678960606	0.01175028486952752	0.003213397661818771	-0.04912898506301648
-0.002923604842815806	0.004281411851689483	-0.004013076002853993	-0.03747001948366532
-0.004690505539821388	0.01031792961036007	-0.004018028297539254	-0.02211183961962165
-0.01427967481491379	0.02887270166058906	0.007504753004520737	-0.02185776937034871
-0.01019918200964033	0.02592500268059802	0.008898418634476605	-0.01187755666801524
-0.003404647246470023	-0.0001292511725791627	0.005543119772567865	0.02553835376909781
-0.001838049579007002	-0.052821768341523	0.01059992932081591	0.03788358026685135
0.001540373545290384	-0.05995670858960784	0.002545607466540676	0.07274475760204609
0.0139759849564438	-0.03480888663687543	-0.006399694946631177	0.07159442587886064
0.01440175213281363	-0.03383438613648511	-0.01142153029850156	0.05953637511694732
0.0172176591213735	-0.01745868467030569	-0.0129043556413051	0.001117207148435928
0.008588114526937795	0.002106436085296527	-0.01133529369862321	-0.001724703561458662
0.01133910993752044	0.03774059956201675	-0.000179698862238861	0.02124778965476157
0.01476578706992074	0.07234342431275249	-0.01848555332459362	-0.02562483248983266
0.01544290994492972	0.06429759882196354	-0.05679710507640006	-0.01357634787416234
0.006833655997105508	0.04165852730589193	-0.04715742554507311	-0.003159713232709328
0.0001286025244733522	0.03074738070895696	-0.01952105104073991	0.004144268125701516
-0.01490173877420869	0.003928505313602876	0.01324136933387987	0.001284827292016895
-0.01636188335899534	-0.008287641147228653	0.1012381811214341	-1.369265401369501e-05
-0.0183252901487429	-0.01666197009312022	0.116184824565655	0.003091727994780526
-0.01582090975344069	-0.008385240916636729	0.04413826638052525	-0.01077826551188802
-0.01065213719195503	0.000474746173891889	-0.02606058212627001	-0.01612393772760391
0.00722509113648192	0.004091832631213371	-0.05025828153483988	0.02376554862253277
-0.005537127190956554	-0.01683049004172911	-0.04033292372435137	0.05056740653335766
-0.01804270952880199	-0.02109077657130247	-0.05255091628230044	0.02372429371122564
-0.003930621683238017	-0.03143886114800208	-0.04992050218460978	-0.009385089056282121
0.02344995963419184	-0.02227565796948282	0.04489752386990781	-0.0679866125642947
0.02635433527318949	-0.01855852794885931	0.1147811121687743	-0.1056172945801939
0.02224771750709116	-0.01926155201169126	0.08739759814104947	-0.1030985039481529
0.02419925360235	-0.013479054678139	0.04509936007874198	-0.05476012122278243
0.03387303357128798	0.01636154646973143	0.01901209323736121	-0.03777572014900948
0.02658815560322913	0.006387330756290087	0.006500929054700952	0.002406774781329024
0.001751058971660379	0.0008090000603560147	-0.0009234474514370711	0.05634649479021669
-0.01526069720956764	0.01663903616347957	-0.02173282575057795	0.05872073660514615
-0.01659868732655296	0.01985895314580128	-0.01213295328215435	0.04120528248877793
-0.02086048753824837	0.01983700712129089	-0.01474469407837534	0.03508885146342842
-0.04556362602694219	0.01587806184156963	-0.03089306265257938	0.01843214192624172
-0.0206739314957926	0.02629903714579685	-0.03361842577547217	-0.01582009378609313
-0.009441131285781734	0.02796188065983386	-0.01502048186347473	-0.08278798137034743
-0.04963921663837671	0.003571483092442777	0.01391599602893529	-0.07853078595799368
-0.04100288274370147	-0.01103805860908321	0.01732327231359748	-0.04084703653961752
-0.02047507325741125	-0.01004651643006603	-0.02645980109164951	-0.03260708610620056
0.001800820680573416	0.01471145725707282	-0.05592281857691437	-0.02120784045848328
0.001331254227475805	0.01001559413245293	-0.05074685204686123	0.003872581245793035
-0.009500236744011056	0.01611193340444605	-0.03800012401514458	0.04759456292550629
-0.01008241997120937	0.01647120048349057	0.004011284168920575	0.1464380417227177
-0.02412397262223098	0.01999031234668437	0.01184172208085598	0.1594951037226044
-0.02555372435322715	0.001800106151317936	0.006632747005152229	0.0389108665123892
-0.01872159207790783	-0.007017217683591746	-0.03527147169084829	-0.01341525502208924
0.00715796497901932	-0.0027617541396903	-0.03002017861971968	0.02258634021313717
0.01804202688505334	-0.006120092495620236	0.03238503668724226	0.007591195778286677
0.02583372291089665	-0.02018772278648409	0.04016815423027938	-0.01367337230978379
0.02012213428362412	-0.01271011505425069	0.007501716722875115	0.008393652843060656
0.00272112553531029	-0.01477457169862014	-0.03245818998304494	0.04797061443733446
0.009276444951304275	-0.01262872531957754	-0.03927211597816523	-0.03046510344687432
0.005781607880865969	-0.01444769256091608	-0.05116881829727408	-0.03816616242732906
0.008157596912987553	-0.00127279573305725	-0.02860954411223885	-0.04660682878110954
0.01437692206010906	0.008595385506876246	0.03467399818058314	-0.03805937312904498
0.01083775797800632	0.01950355004582467	0.02874991744377474	-0.005129206184044427
0.006252789131325435	-0.005859940362709684	0.05790998989893319	0.01090343637825994
0.005598509016198841	-0.02830671716597348	0.02426599740588254	0.01321819499709649
0.01652227653172288	-0.01956941695178446	0.001752447806696913	0.005762987478052002
0.02755983761159168	-0.006083646699853346	-0.00383823632707409	-0.002570095279043305
0.03377312574827997	0.008964687655773067	0.01917026628406954	-0.02042838059740761
0.03892539381918738	-0.01249955828036569	0.01374801041950092	-0.0224239558954403
0.01998721082621291	-0.02296450023074344	0.04592700016681646	-0.02533628988836948
-0.01332684443782793	-0.01933448633820463	0.0468663740937277	-0.029167762910442
-0.05661106458451734	-0.01923861719306678	-0.01581923707249961	-0.03605150949176408
-0.04276550987035437	-0.03110309822765138	-0.03165366930624242	-0.03663034426645917
-0.03056556382969319	-0.02504895976223117	-0.04623154917319287	-0.03135297503252209
-0.0256880284027341	-0.01601506295125884	-0.0498591160135506	-0.02281496943037462
-0.02219219609979557	-0.02059783116407198	-0.04285140737495281	0.05757184932981144
-0.01479255323687338	-0.02151385541801009	0.04299127410167058	0.0194343493021159
0.000946052904549006	0.03107194836729965	0.06601493355219697	-0.01298477408509531
0.01241478526404156	0.07257508683295885	0.06948781158517643	-0.009941935638393006
0.01070606212429745	0.04500295428516323	0.0346650727484895	-0.01619507652905844
-0.001249546465042725	0.03480387658766807	0.005560617275784842	-0.02786553371064742
-0.0007725406113406462	0.03467024058136477	-0.0007617237569515835	0.008518816356326037
0.007201444059056908	0.03404768461343365	-0.03961597390927857	0.04625864171649453
0.005257425351531487	0.01039845356268803	-0.06078873469079876	0.05783591171924069
0.002828745553105935	-0.003578501493723095	-0.05882286429894732	0.03998711202139908
0.0121846149676574	-0.0001580177758613168	-0.05939310636124671	0.02801326508089635
0.01110070051268338	-0.005609304137655562	-0.04314988902998861	0.008633431000376836
0.009528061490319505	-0.01900331518741217	0.02451725933982305	0.008158191383900899
-0.003650575332860902	-0.02149951555847427	0.1097254111905615	0.06589849626639015
-0.003288596304497485	-0.01598842078862556	0.08009556843974544	0.1138480199536787
-0.0009215695342049182	-0.04186367560079819	0.03609091733166104	0.07219759872485348
0.002117028151291798	-0.03591708376495517	0.02914812936166492	0.05695506948939805
0.004016618083053333	-0.01061801683258064	0.009017971121921573	0.06760150633949824
0.00647817054738058	-0.01260445292760862	0.003556576529529508	0.03166338014005882
0.01734781386438149	-0.0006387622580955278	0.004359143732942778	-0.03637878047314346
0.00925708795870064	0.01078480879097474	-0.02085454590400207	-0.05489749398036405
0.001654850861971224	-0.0137113947887138	-0.02314982196795823	-0.03332223957048564
0.00101378357189758	-0.01588433226119707	-0.01749700174929718	-0.02887048703900034
-0.001399182758699433	-0.01441897322792673	-0.004109636889413348	-0.03614068086704717
-0.002315528832108454	-0.003377348369373387	-0.006121784242550671	-0.02253855524191865
0.004841505443290033	0.01703226700262654	-0.00607041008915562	0.0107757719620281
0.01891245694621536	0.04131268336740938	0.004313720530796549	0.01111813159296829
0.03058272414396091	0.03755274800958658	0.00958288357067656	-0.008431581625458547
0.03051329321420965	0.03742604340734641	-0.01902625036325025	-0.05442145220144601
0.02218316051072257	0.02977246879294882	-0.03511565196140684	-0.08004649473590338
0.01277689328856606	0.01913713263234223	-0.04997541407661629	-0.09338196941609064
0.002012163588258216	0.01746299474242718	-0.03381790599640813	-0.0946635527430322
0.01714918394566846	0.01735985032988172	-0.02799478647451715	-0.1099815533381504
0.02105579094737157	0.007400442978236442	-0.0132492785032177	-0.1113354159940726
0.01023103405758583	-0.006520272123029201	1.838696391571364e-05	-0.07447071194592987
0.01597831460362721	-0.006306356126221004	0.01950594631270714	-0.03680610751796123
0.01472407281620267	0.01031994152734814	0.03958249035338685	-0.01786531822262396
0.003347795219878907	-0.008813574048199753	0.02847157063944059	-0.006885553539465515
-0.006102470985548194	-0.01364839186295309	0.01705290810258249	0.0914408539514831
0.002399060151519625	-0.01667120512073089	0.009452061660073403	0.1583123583096812
0.008647371364218968	-0.02164483730978444	-0.02064499419358468	0.1246000593844804
0.007863645774245852	-0.0225249103952644	-0.04074630135277392	0.04174105660176141
-0.0003273712454039105	-0.02921766709043908	-0.01047687270346905	-0.04753123478600133
-0.01002426113900646	-0.03444313217202713	0.01875758805664953	-0.044489480541549
-0.0116319286124047	-0.03501887300059543	0.001706254303155585	-0.05089796231018668
-0.01355998661140648	-0.02665278541654026	-0.01839391232897039	-0.04337009047783852
-0.01812066309099774	-0.008704900267730015	-0.002965287282552058	0.05637892724168539
-0.02320849485772394	-0.007207620704665044	-0.0195692286484915	0.1460302094721296
-0.04870031441433471	0.002432798451808704	-0.04915293930501151	0.0631329332720296
-0.076040974450233	0.01554166214719604	-0.0602774072027063	0.009746789078271242
-0.07674686773391659	0.04368544742251968	-0.03887714605717314	0.007201640925351054
-0.05434741271543556	0.03294174939904518	-0.03507249665813873	0.01854161381140811
-0.01643760729898283	0.01321854824434143	-0.03075859273175073	-0.004568926399313191
-0.01090347455986132	0.01204891085520277	-0.01058156182352523	-0.03060329521421534
4.715230747977737e-05	0.02309302540520628	-0.01664356447183427	-0.05532168921232546
-0.0001778689377803929	0.01825282068537884	0.04335380704951593	-0.08987463677691346
-0.003030744980542887	0.0007913882689992115	0.1086852907239127	-0.1165023553966897
0.004602119788451216	-0.01790661935767465	0.0631992644648401	-0.04761762381021711
0.02402120688322755	-0.02112673678050415	0.05994571542434045	-0.02623748136696079
0.02516127584056909	-0.01608244362034748	-0.01312879663331163	-0.007335166953032674
0.01703225714135898	-0.0228433811665616	-0.02329427026864902	0.002706322274606085
0.01693300887247132	-0.00373448834180996	-0.02088466337975069	0.03176555615297796
0.01127212734058849	0.003164664609928333	-0.007076456308088751	0.04854400467004047
-0.007319944133617521	0.005308683815636825	0.07835423629538439	0.03812710330085133
-0.01661796703045261	0.02891118070559816	0.1216656210210584	0.03317654427457303
-0.0061369324255314	0.06638985468567252	0.03366801297108141	0.02853885145267018
-0.002070894974228374	0.05774115448852055	-0.01364309578489988	0.006631036386082945
-0.009194879112121333	0.01665624512046225	-0.004971811989850313	0.00844749777730941
-0.0496577588047844	-0.03236593634995594	-0.006610888995106747	0.03026980041711265
-0.0413558535080931	-0.04800064254249412	0.02026104494236539	0.02923911048023658
-0.002009713029058715	-0.04228119394594191	-0.02213868573172919	-0.01679939613735423
0.002601754120836514	-0.0254148117814086	-0.03546711634324708	-0.02954971485535602
-0.01660723251672576	-0.01455404044635558	-0.01796465511747266	-0.01243129071509678
-0.01408659988130558	0.01568588062044729	0.04828132316214565	0.03606074353862818
-0.004191344536989893	0.02473057307140562	0.05112784356031915	0.03370530537822385
0.004883762482980078	0.01637752738131795	0.01674959784577107	0.0005718520131975823
0.007597709155425169	0.01755764581432763	-0.04314475480132188	0.02582322310880599
0.02059896878720896	0.009851552560979355	-0.05789860778197035	0.04431267715201351
0.02626202299123461	0.006385755177114396	-0.0573611942151723	0.01691397892485405
0.04099483880030195	0.02090790262021156	-0.05037102738193395	0.0275644339189254
0.03411776555597854	0.01623154956005707	-0.01079928316965803	0.03370519191832947
0.03163040586669398	0.005255680560254439	-0.007027146638648259	0.01449308469167198
0.0224977970217516	-0.01351011199034055	0.02510724396984693	0.02466420388585403
0.01811547478858469	-0.0202623595305949	0.04614660922672584	0.01866559703209597
0.007608010964625455	-0.03010323992706959	0.05119987804624285	0.01157087463957237
0.0009957863603327981	-0.02492208316862533	0.0666424940611393	0.01021228406095843
0.002753309830202805	-0.03127912759233107	0.04208964413535835	0.01665692480343373
-0.005001139557837445	-0.03837438503109122	0.01925871185558824	0.02932010940625476
-0.01550817324673757	-0.0240357716402516	0.01300781349525705	0.02876814734976875
-0.01489161983008334	-0.02604269191466647	-0.02955039775042357	0.02070803114038087
-0.007064960787086555	-0.02959177818061142	-0.07265133172190179	-0.009510558742880147
0.004111394177581282	-0.01632399612089551	-0.07440625045815592	-0.04835831976872879
0.0249593305805839	0.02417057930221188	-0.0381549957480295	-0.04460061644173786
0.0216496945535497	0.01843242533094261	-0.0249383466007078	-0.01700967840965863
0.009624197130784048	-0.01281291062122004	-0.0001910123157864508	-0.001880425929859145
0.007217777655058147	-0.02528711549286642	0.01493175850618018	0.0004624026444585944
0.008716167783540982	-0.01576105763020163	0.03637449310248493	-0.007023283782358584
0.004541425878967139	-0.002563210276492456	0.009032377584924966	-0.03605116182297297
0.01215098945569733	0.01523578584273506	-0.003998449820014231	-0.01601702983135717
0.007558382901569868	0.02125513861421553	0.008912065148637224	-0.01647625519275656
0.007183296178354301	0.005206978641501999	-0.004110877952444141	-0.04601814034508369
0.003932503093892894	-0.01725648844217837	-0.01093189909316494	-0.080208738895839
0.001972776246600303	-0.01037189074294288	0.01152234597217592	-0.0749941466397077
-0.005939398504049983	-0.006594880287906892	0.0001368910667681293	-0.05793956803846369
-0.002099513572965696	0.0005959558373877121	-0.007099539315208832	-0.00572276386844395
0.00786549127306641	0.0270378995271712	-0.00980695052122766	0.02723625443296151
0.0233193448160264	0.05813119452236219	0.0112297811955838	0.0192392375629765
0.02319798068318159	0.06081881263603089	0.0123250181562966	0.02938613174991272
0.02178626347881247	0.05983462405014433	-0.04940433341623594	0.01219550571110009
0.01143412891720722	0.05592231043640942	-0.07067073438246362	-0.02099974253890545
0.00358773924189316	0.0350207836508845	-0.06530809511305002	-0.03173321175791122
-0.0009021358915774957	0.01811580416147435	-0.0572491192356673	-0.0192155718477061
-0.003093522950893466	-0.002263344797714022	0.01548748040786896	-0.0009455689074984773
-0.005924198835393061	-0.01377735783398429	0.07190520539740496	0.01164527168531835
-0.003242253960742785	-0.02441543741180883	0.04110195745607034	-0.0115161991538704
-0.005041535041029163	-0.02673614737175918	0.01579546055902818	-0.0270236446212877
-0.008664012980015807	-0.03532797953476137	-0.006483717493048153	-0.01868593188701595
-0.0003494699341786625	-0.01870290819601601	0.0146270192163846	0.005607308656181379
0.01152433520226483	0.01032446555161553	0.01508955442443475	0.001696224444528317
0.01172905993886741	0.04400337694883582	0.04705757194898845	0.002697012621213401
0.001097265153125197	0.03823087911855046	0.05350946430901279	0.1018747997028505
-0.00905909270749369	0.016211927855888	0.02251146755634421	0.04906837708622332
-0.009520146734135483	-0.002533325743565689	0.01617473660533768	-0.002032323192478988
-0.01441447736023143	-0.01571145357848357	-0.0006122498175125287	-0.01523586496167405
-0.0134622639368828	-0.00738168837887129	-0.02087327076353316	-0.006328197841016407
-0.01056404075504812	-0.00409011615595245	0.007856062283485898	0.04484976021065605
-0.006669437677244164	-0.01079758556914694	0.03232103406179761	0.073627778681731
-0.01935697019370591	-0.01020817949166677	0.02822911027739547	0.0530802027253803
-0.03119840299458166	-0.01453518855695644	0.01297757982337	0.04263593995304536
-0.03324876356088448	-0.01893407009938312	-0.01172609593310711	-0.01330141547439569
-0.03026491792730937	-0.009392320544498511	-0.04601956759520315	-0.04862699141637584
-0.03095399235135446	-0.0141356964993024	-0.03351410876638325	-0.03463934917077957
-0.01253702249473767	0.0003109114229544833	-0.0193287618028124	-0.06805734944405588
0.002286915428387669	-0.004067187975613431	-0.04947391081990652	-0.0168144400409174
0.009914249018866436	0.007651401025452741	-0.024181624338479	0.04030370886256866
0.01558675060854532	0.003097426412833881	-0.02257467066618436	-0.005920200426574412
0.0150478688259693	-0.01152933646554702	-0.02523243231715142	-0.01542692400137394
0.001576838667009457	-0.02016392477349485	-0.01414343273768744	-0.01371786472260188
-0.01921413585145363	-0.04389511560335579	-0.003925686491820166	-0.02263305191849605
-0.02734234484585833	-0.05252571452243218	0.0068820718167677	-0.02060090215019346
-0.01252298649635748	-0.01478931784317678	0.01273254112091188	-0.01442567748463265
-0.004840631624288425	0.02641926758143704	0.003110965649485305	-0.01036418351157279
-0.01107184677419931	0.01132452968954259	-0.008288811767348685	-0.01580145645352906
0.005115417598657485	0.006917308967478386	0.001832639992998666	-0.01218104765957941
0.01860288694146534	0.0107719739050643	0.005693206765185562	0.01315276314353345
0.03043287262284602	0.03241476692740539	0.01346546899269738	0.05105806758063042
0.03123839724340832	0.05567380169860624	0.009432032630470568	0.04940822984193093
0.02095332937117388	0.04982848351427635	0.005419699422026618	0.05575683417733163
0.003801712007220344	0.03507727570520626	-0.01046428603395807	0.04348403801928452
-0.01604226184298991	0.01916461775757656	-0.006492198239246865	0.02523199199577067
-0.04746334828172498	0.01793952604474154	0.01594540604397822	0.001929510656630295
-0.04347152829053881	0.009363713446663842	-0.006759115843713298	-0.04583044318624561
-0.02291743633755533	-0.01688900783795629	-0.00966695741489342	-0.03745871202550938
-0.001218331434540717	-0.02395058808486851	-0.03329662850872189	-0.0138803528036494
0.01806064845832091	-0.03601745515477091	-0.01209892216520481	0.0063085609251445
0.01593420903685823	-0.05747005700779428	0.003837676943071302	0.02026632965617056
-0.002123358966257507	-0.0634945183488355	-0.0194740277844762	0.01140097673105371
-0.01842440023952014	-0.05831643750516109	-0.02039661905415154	-0.02122443515995285
-0.01716855992072541	-0.03630319449943503	-0.01683474068833715	-0.03098805511130456
-0.01218865177793581	-0.01906848119717043	-0.02842433146737098	-0.05389466969290715
-0.006902223888882674	-0.02031383783794195	-0.01380585637448132	-0.04321026147939441
-0.01275189755592058	-0.02494990402096173	0.04384565080881552	-0.02722404054335259
-0.004427153088316984	-0.01794289858766181	0.07918956371611144	-0.00936195162229749
-0.003453759021470177	-0.01553377256817525	0.04493888492353482	0.0316372748776547
0.003330075306452289	-0.002983358175902763	0.03802440021086416	0.03197795828909225
0.01683822796829686	0.00203570365370295	0.009348949783260011	0.02223109996943771
0.01597415361780802	-0.00310111074800558	-0.005364378833676603	0.01610938867959652
0.006450788834802062	-0.004337939542783701	-0.04488792875315975	0.01095657499417727
0.01400344338674135	-0.007122538779991153	-0.0461956243930444	-0.02179627521289215
0.01140262776067637	-0.01582203762217233	-0.04179798433925584	-0.02715747738043877
0.009676806086671451	-0.02182147957906457	-0.05294826725993231	-0.02232988768222187
0.0186388927187102	0.0006972741588248473	0.04077510391811771	0.02127788147541504
0.0355690804775949	0.03181396832277525	0.1178472011891229	0.01488631507242378
0.0371973243507964	0.0524090259885164	0.07148418410254877	0.007390061005376035
0.01907895784195405	0.03549370588656407	0.02423494902577726	0.02031493425395682
3.662147551618222e-05	0.02751706861888953	0.01380741698569201	-0.005287100224570835
-0.00109465084057314	0.02616524871626858	0.03959406845454264	-0.04754834424077983
-0.003491557488059041	0.001361772723314825	0.01436894002160941	-0.03919580902138972
-0.005908184089552478	-0.01324879304361322	0.001385598969442385	-0.02563772858677266
0.0009200844579169049	0.01363048995047052	0.024187924962558	0.001360890113804386
-0.001197583739247072	0.02712555310834533	0.0535074655408535	0.04000531955922339
-0.02670082792585578	0.01630507737670023	0.026698949877648	0.02462792722799234
-0.02741393271909946	0.006085565723847031	-0.001218774841375978	-0.005037034548172241
2.438153667403285e-05	0.01064058644888454	-0.02577195888102702	-0.0217535223847392
0.002076432554080695	0.00565551597908119	-0.02125486025897054	-0.03425298537404493
-0.003136521690031711	-0.002698479949967902	-0.0385086136050493	-0.04037011698896499
-0.01551515409899274	0.017111214538531	-0.04659545914808563	-0.01613713642356266
-0.008991089468504392	0.008203702266890918	-0.02794233000574366	0.001365803124530258
-0.001238312932733427	0.0009103936307973818	-0.02038092936969121	0.02510312244671233
0.007533680044103832	0.01719763187869083	-0.0424577891118497	0.01482891904618851
0.0166632001523831	0.02481091568877852	-0.03097551296587674	0.008696000278340305
0.02138466808940275	0.02730354382568055	0.03517629565303233	-0.0001265838030883338
0.01600473920001171	0.01249687709599896	0.01346815262227883	0.005351843122132349
0.02279538549084248	0.01652412040710522	0.0009159683440444885	0.0261928145734441
0.0242750680891468	0.02309560428348967	0.02837559277560956	0.03154027815051787
0.02089229028918168	0.01577318214696063	0.01512070338577146	0.01064325588198112
0.01701604719992957	-0.000249504561908664	9.397864172160474e-05	-0.03854152329835692
0.01213125898768631	-0.008730128860068222	-0.01801087061048498	-0.01349418755138863
0.02163390221763657	0.007415818409175643	-0.05824675385717677	0.01225774748570437
0.02018159029377837	0.01203108772684894	-0.08237749965337124	0.1084907495200533
0.01662887036278542	-0.003959113069352828	-0.04528362895492682	0.06624079196473098
0.0138924956024364	-0.008889790112456004	0.01117877470138946	-0.03348734842475971
-0.00692002302848903	-0.01722523255213121	0.009855022656044522	0.03432668337524027
-0.01772590705109988	-0.03763723769419076	0.02038297362499225	0.08788598469871144
-0.01657796127562335	-0.03779274543393763	0.01615087816403224	0.04856366014824402
-0.008246938247584207	-0.0171910422752676	0.03836483020616647	0.02688941323107472
-0.006015153071219153	-0.002890164020713093	0.05403596839324071	0.05971116269046045
0.006931906679442465	0.0258455072388302	0.02985443874201412	0.0956054493133101
0.01551708386128174	0.04057413447408888	-0.01322342540213172	-0.02287614224510616
0.00364580579517665	0.0328872033147604	-0.0512687179255476	-0.06738812377591777
-0.001889239123139225	0.005685465486400298	-0.04616046899103491	-0.0190998671630593
0.0009001042220959759	-0.009207259597002337	-0.02046508356027748	0.008624757355896432
0.00590582611631129	-0.00930179843482362	-0.02812155041275153	-0.01570910556645611
0.002745747492914062	-0.01420674962500629	-0.007825652143962502	-0.03282293370298352
0.00179515970111079	-0.02278905170941519	-0.0008127575597685756	-0.03711242249797807
0.001148897164483877	-0.01970427351051478	0.01525025530680616	-0.04985316058051763
0.003794744065412473	0.001460090458239951	0.01081717560099726	-0.05443462716004748
-0.005688866205194935	0.02471850230000836	0.01782358017665577	-0.04439473361768002
-0.02512730224656002	0.01615142997460452	0.01853339313180051	-0.02389413069448158
-0.005096287161059936	0.01635978857968636	-0.01212267341518455	0.006347665577686173
0.004777798520470381	0.01826529856657196	-0.02444795871825305	0.02658687387677308
-0.004220562154187164	-0.002578305583588275	-0.02155777605018359	-0.00150570319431297
-0.001772360002549767	-0.0190083834979032	-0.01203871659619682	-0.01106790131277054
-0.009849909694316214	-0.03345764112125549	-0.002887418202730908	-0.04385255273770249
-0.02225120060999102	-0.04404153192073237	0.01786016930363184	-0.06636299638673963
-0.03164846656320528	-0.04139570991297047	0.01884215792938952	-0.06602605308438877
-0.03250815671398138	-0.03201175472954142	0.0313177616340248	-0.04041655043847252
-0.03005734050822801	-0.03713075986448917	0.002649028456566576	-0.01307762369382263
-0.02988999596409409	-0.03031325012065562	-0.00234861273640067	0.05574732020732202
-0.02331577301701481	-0.01181607664955849	0.003578068835022499	0.08342229941675187
-0.01809365410843754	0.01240962352330657	-0.003178712031161953	0.04732796459681873
-0.02179503279026088	0.01906466054312081	-0.02994226689791001	-0.05257531310755741
-0.009698562834178574	0.025634815708364	0.01849182143252796	-0.03067137804284545
-0.002229354271536243	0.01608331797615042	0.03141619302798362	0.001712608642166724
0.00585126755429068	0.0108407750592017	0.04691272541539102	0.01916546216177446
3.158531997483648e-05	0.03472810080425828	0.06853009187306053	0.01466018684188207
-0.006013209312322161	0.03630377030777665	0.05522366534335971	0.007144627760396005
-0.0130692589701561	0.02869300265573979	0.01502195088799606	0.0148615873352009
-0.01316485526949203	0.02726468375398069	-0.01806188769986748	0.009098889904040572
-0.009243062592973854	0.02322374082848363	-0.01917967014869998	-0.01403069961469931
0.004073376837215305	-0.004970165501487577	-0.02494170834362262	-0.03580214442727768
0.0009093019815483359	-0.02288169577897391	-0.009849774498460117	-0.08078411326797461
0.01512764259777869	-0.01731375955762925	-0.02388811548108737	-0.1022511089844296
0.01946824048571392	-0.03586609162357669	-0.02367204726599335	-0.07839402766088387
0.01465860116135117	-0.04126897381634934	0.002095726299119191	-0.0748355693638888
0.006229476230227528	-0.02220085734975957	-0.007897809829896881	-0.05829531207113758
0.01173925871753115	-0.01713862469535199	-0.01125383850670755	-0.01400179917376216
0.01005347967985342	-0.009855589017612172	-0.0307569559820446	0.08579463572448738
0.01897584966405316	0.004013124232572643	-0.0440593324201063	0.1525205306092417
0.01479116548089549	0.004422512324692839	-0.0325889776232339	0.1102672398940704
-0.004582020424853762	0.006250384849318613	0.005451032371717617	0.07650060860209303
0.0230591244223676	0.01360143974222686	0.008972258424923283	0.07029108929089282
0.03704722485150862	0.02296411033788102	-0.00172821423138945	0.08055026737997906
0.003919419043472989	0.008109840224364791	-0.007929606320183318	0.1051250429845974
-0.006215269070457895	0.005278930260416414	-0.00812878917144415	0.06869379465368808
-0.01300807459860756	0.003156243447092864	0.004348303271706321	-0.01357821719526475
0.001573860679910026	-0.01030645230224515	0.05983763583044912	-0.05969873910071777
-0.002889505288301138	-0.01915750876258942	0.06597049029048853	-0.06957568859575552
-0.009481059157188719	-0.01484477379010702	0.01873539321570163	-0.08384045417035642
-0.02059409550337739	-0.002309136223637562	-0.02503230729572936	-0.09624561191650235
-0.008793671289905417	0.005875596966918598	-0.02554271421980232	-0.06924121399871677
-0.001068597852534049	0.03103553263565474	-0.02488403548944203	-0.07360045506162156
0.004699685727227923	0.01573140846136252	-0.03007295656441018	-0.0709029956355921
-0.0031509236277937	-0.0175980621400132	-0.02470015541710267	-0.04519671276166623
0.007950890095502495	-0.01338803526840421	-0.04233832316482254	0.04511590867890133
0.005450379450228435	-0.02007366941180356	-0.05158773274905167	0.07260596101288205
-0.007767898637311097	-0.0350009567437454	-0.01783119814342921	0.04248122234868697
-0.02611164549067077	-0.02620616418125691	-0.006295020893186707	-0.007007646883358597
-0.04011160684904272	-0.0116382899235796	0.009697806327311168	0.008700232816441065
-0.03608467424719474	-0.02804253501823238	0.04794356188957006	0.08173049314614647
-0.01964161525813618	-0.04044204577793968	0.07876997206902878	0.06824862977226448
-0.005785056350406516	-0.0186155018634438	0.07617600404380422	0.09469434037479639
0.004367970667301459	-0.006107878735082491	0.06486930347675535	0.0477896350658688
0.01642251204003884	-0.00842084989683305	0.04566226047844384	0.007633322665056975
0.03124352173612742	0.009676628160939114	0.008341108736734933	-0.04984224549932069
0.02744767500755526	0.03635265202361238	-0.01024596126044685	-0.005238797257788398
0.02327833283969792	0.04095784437956542	-0.02438067214295348	0.009854192963292669
0.01296486618388103	0.01307397877778977	-0.01640688273820099	-0.007795529337478296
0.005188516128905817	-0.007228430024439395	-0.01829965931819409	-0.03266232674712995
0.0004275025206971417	0.0005978968793443156	-0.007858723072991493	-0.0156409988223615
0.004726564752792949	-0.008476773427259143	-0.02361894092973399	-0.05328180649332316
0.008942788404996059	0.003239178149779328	-0.02703612895831854	-0.0694807806781831
0.009399079216148106	0.02434022775918696	-0.02017705880906667	-0.05656403621600974
0.01285007603444695	0.02592342017361175	0.01632930542997936	-0.04247974528145613
0.01279959019424826	0.01034520745196669	0.03743525787426321	-0.006942258000593442
0.007069521467500253	-0.009097809449626806	0.02727210449871813	0.02407518464368388
0.009809380487217956	-0.008178307839332752	-0.003608365061290059	0.03648239450917504
0.01764910489941612	0.006579757710663789	0.001521874764919026	0.03709485816146688
0.01071485726237931	0.006371687625564314	-0.006589142601994073	0.03922320132566826
0.005961786983032717	0.02595856464890742	-0.01614069681025461	0.010561272064074
0.00649957585579285	0.04956562442224104	-0.004125203545722357	-0.009726858435668312
0.004794564623744166	0.05942356857662108	-0.02108218354646854	-0.01978484991309713
0.006830437178175961	0.05898112942816969	-0.05254329310770249	-0.03353237714414298
0.01143054662439703	0.06191365468849881	-0.05956119964863776	-0.03079691600920875
0.003913493056416291	0.01971908033838461	-0.05236782473010754	-0.01250781367212553
0.006100254436272781	-0.006766496719232394	-0.04373816613211956	-0.005880976223048295
0.003291999607121303	-0.01277216228442071	-0.00944501527768698	-0.02424227594122502
-0.0002372867735195941	-0.01841601715237823	0.02119709448772211	-0.0169555869315857
0.002049212636902592	-0.01913996336864439	0.01845858210489446	0.01632653211305568
0.005177680160469379	-0.009082104525700347	-0.03896594257562342	0.04382702117260651
0.00231376868829874	-0.006126096995279164	-0.04104050141699012	0.04333221816177323
0.0002779819745481762	-0.02427543840584103	-0.008952179948968188	0.04029448575020979
-0.000630059217490543	-0.02197941134969307	-7.847827081872887e-05	0.0448418894901475
-0.00212629141173401	-0.02099264480793635	0.0739495405288486	0.04786782690569742
-0.02720081831149203	-0.03080537739621411	0.1740533842873337	0.04308399783745289
-0.02655657021005016	-0.0292619021810709	0.09755254050906878	0.009288988887925493
-0.01035356463544797	-0.004382213404619784	0.02593057846732449	-0.01529461576331814
-0.01341570522583302	-0.004247225610496937	0.02915126708412802	-0.01110549536318411
-0.005396089207560933	-0.008826763631261262	0.06001876404280131	0.01649071977100389
-0.00225911564036362	-0.01616053217871532	0.02331325032627679	-0.0102593408044921
0.004015048913318774	-0.01604291123981241	-0.006729678817009508	-0.03894807762137596
-0.001044354437196185	-0.02511092218845841	-0.02524534722155605	0.02132684897298694
0.002659896718626851	-0.01924388828889946	-0.01762475802855472	0.1082996619428923
0.007902125068239349	-0.006117294330181903	-0.02509559752330068	0.04550921522255966
0.01479302161926791	-0.007229443493046537	-0.03029313825296575	0.02471663858210985
0.009996394997248734	-0.01169397718900803	-0.03382010608556112	0.04249782874634595
0.01058311780086551	0.01926210042028295	-0.04021570844763279	0.03211924568120687
0.01232341236958188	0.02320537252437393	-0.02175731068358333	-0.003010761807411607
0.003037763706664164	0.04656022059316984	-0.02205057416505893	0.02425246515321871
0.01711048005749813	0.09229868297166482	-0.006778927098768041	0.005131339787016167
0.02037050165081719	0.0985153016257206	0.01969949563418853	-0.1255736458263159
0.0004457224660692945	0.06399750914358454	-0.008702870590826479	-0.1267960675493636
-0.01884422699339215	0.01823513594618058	-0.02284632340357956	-0.09624154519504029
-0.01549832516176373	-0.006544588886207185	-0.0245089575140715	-0.06194248220678415
-0.001455493935648202	-0.01576833790465515	-0.01769380164403524	-0.01538045028165904
-0.001057704499810549	-0.02377381960196148	0.01806229256677251	0.08112726370974199
-0.009962942203341216	-0.02331042095541484	0.03283527856863298	0.03730808050936998
-0.0248490487766913	-0.02538707466979976	0.00911115973356621	-0.00881745834985875
-0.02326849334679392	-0.01289730126434504	-0.00210598853774359	-0.03121044821092494
-0.01739285021592485	-0.02446692462239777	-0.01696313230187959	-0.03716728209582329
-0.01372054348724644	-0.03260533783030409	-0.01339955487326198	-0.04149551624262219
-0.01882394511431641	-0.03847184894320572	-0.004657002083444354	-0.02968825093882329
0.0004122680359378988	-0.02355775053681676	-0.004087603948843764	0.0288585481840585
-0.007229888652530581	-0.01615732530409486	-0.032935268128119	0.01113334171484791
-0.02838418371304531	-0.01268870985220469	-0.02362644910564233	-0.004535389371964538
-0.02300694108696737	-0.01053618351085717	-0.0004440351754842183	-0.007103096270527051
-0.03266874752994563	0.005827858895807213	-0.01084890337930717	-0.02722057769085659
-0.01604779598458939	0.01231543417280232	0.01643825677928738	-0.02722940885407372
-0.005968090549996374	0.007182277201567932	0.03021730571786214	-0.002455721092450336
-0.008786750869153282	-0.01921496946239163	0.01806138696508466	-2.203018096545402e-06
-0.007834194654758727	-0.02195063842952562	0.01219002933457052	-0.01229924940289434
-0.01507083701325485	-0.0200333190007615	0.002998347298431393	-0.008933592481393457
-0.01997299317605453	-0.01730927180076704	-0.009162048783078794	-0.00844319990080516
-0.01598959198831616	-0.01497394178620249	0.006117381268651009	-0.005879922068336962
0.0005457976144614372	-0.01225694629212532	-0.01285735355475006	0.01551071357770518
-0.008662142015524324	-0.03532893985534943	-0.01444853422377672	0.02215218853459013
-0.01114302583886264	-0.04495383518661858	-0.01411995694728646	0.02807293865511411
-0.002418007204400023	-0.0227651279116988	-0.01474898404604778	0.009887556730307532
0.006786068972164756	-0.002792246136685821	-0.01405827537588817	-0.0006645578244376723
0.006161654698864549	-0.0007419939922785401	-0.007274632745026073	-0.03561956787337745
0.02512182738834264	0.01713177185099874	-0.02947304517368418	-0.07288605081773235
0.01561286444978938	0.003807266177392909	-0.03087912176279617	-0.05263361996335385
-0.001256042607764934	-0.007233191374934299	-0.008449520476769218	-0.02364457504318124
-0.0083386713742528	-0.006708501363316026	0.03401521361526581	0.03440506623446245
-0.001564347588344529	0.007413010523315848	0.007831178585876172	0.0455704943690325
0.01458359435987011	0.02035144761071265	0.005708728341399156	0.02784199998204749
0.02484226976876111	0.02145436400971469	0.05203770582781064	0.02546622054590491
0.02942428067600164	0.02288744531950434	0.06293565406551392	0.02531609046676767
0.02081842786381488	0.01935401231917024	0.03201626803056474	0.03930863048884245
0.005925536963223449	0.00782438135605165	0.00100763853023072	0.0007767454833574975
0.005733089329891293	0.008698536307793197	-0.05846228557134701	-0.02113120783724194
0.008411761982520704	0.000722607156638563	-0.06809958440678375	0.001305005952780791
-0.00434625393023606	-0.01078304723499558	-0.04240202673045126	0.01764016394079196
0.001046325076305882	-0.01507524250379448	-0.03276751995061739	0.001913099901940019
0.02294840386115482	0.001343387539743585	0.03696955083078125	-0.001231950126886668
0.02322496536438047	-0.004021651571506232	0.1442759189377895	0.01069487940301869
0.01365321309269633	-0.005810087822724951	0.1013055122276864	0.03234452336727312
0.03344070750232965	0.02275491624324796	0.04651313823936667	0.0380638885277202
0.0470348280620739	0.03066960975332627	0.0005543027726116435	0.05579004854065389
0.03897716969301344	0.06048401178077654	0.0006385712466235396	0.1285399639865252
0.03296155897678094	0.07903356359259697	-0.04336923895947839	0.04619857838836945
0.02167438913292751	0.07656402675512491	-0.0255487178006264	-0.06053726890675065
0.01776070815566136	0.05360286299906211	-0.004472127044901941	-0.07439148805563311
0.0152836483353544	0.01561627900223998	0.03686267160193909	-0.009850051394244394
0.01214843182431284	0.02053306136550713	0.02987430545319131	-0.005262975874289682
0.01741556445142288	0.03148743445814512	-0.001346351172805601	-0.01898436890969769
0.01056282982387857	0.01875459787376626	0.003019803763442467	0.01787128073869778
0.0060998578662629	-0.01722859809793184	0.005840593873881815	0.02591922227848065
-0.004214739533721447	-0.03318154695665192	-0.001135215451479815	0.003191646115850453
-0.007542687616971702	-0.04097807395883978	-0.0158523568810174	0.009189600232625397
-0.002466602763771282	-0.0331501684990901	-0.03509832517680878	-0.02034981658703466
-0.01719554002518788	-0.0259228265075248	-0.04439289146634572	-0.02430095149776699
-0.01281063214300914	-0.02657286305017675	-0.03770955667446785	-0.01334062072788064
-0.02448602481802258	-0.03488398846928629	-0.04267810837367873	0.005769400272416781
-0.02683602924228441	-0.03266224186680156	-0.05183809390123256	0.01111238924600341
-0.01179174853670669	-0.01990734773263323	-0.02072088755031422	0.003431125076875852
-0.01710168326724312	-0.0242544065568853	0.003884903822952521	-0.006030693805382652
-0.01340257615059632	0.00182467464665271	5.491106746667046e-05	0.00624788088006993
-0.01025420900443589	0.0184032881643287	-0.0005048019235678174	0.06943394045936184
-0.003605942783269543	0.01064512250203812	-0.03546561845647876	0.05810231115018561
0.004792862891203017	0.02218363310609008	-0.01043764378723129	0.003357278999949888
-0.00837740370343198	0.01570886608345233	-0.001429934122477556	-0.1230060949325929
-0.01268802210614159	-0.008930274072265034	-0.004664917593741593	-0.2092830106869971
-0.003718640433652924	-0.01998665772139733	0.009265009899096547	-0.1345398125046174
0.0004322661261701163	-0.01979711536601285	0.006505381163226007	-0.04826657471774577
0.0007349850755329517	0.01296199614294898	-0.004887789773986578	-0.008780643935576083
-0.01592283045497942	0.01710201113994872	-0.02202098098358815	0.01620099277091053
-0.03616784850669803	-0.01149605290293879	-0.001988098547196409	0.1113217988449627
-0.03596730419400537	-0.02089189854007336	0.02418859236813315	0.06223948795799221
-0.01844693552433916	-0.004453025773803392	0.02055231010902746	-0.02787014915160455
-0.01249998070512996	0.007419978230340142	0.03545896810028394	-0.03023739435423346
-0.001152606000070533	0.009930405493144157	0.02931729053066915	-0.01604092531270741
0.0105833344656125	0.00341700988016518	0.02605808842122493	0.01855149715712668
0.0001189058063289283	-0.01426921297618904	0.01248183944448572	0.06536882269417746
-0.007673592209286729	-0.02340739849350619	-0.01711762814227718	0.04297652536004962
-0.002927471031679002	-0.00798519528757461	-0.02980897332463467	0.03446299220463332
-0.004958303619160038	-0.0191190387066253	-0.01810343742444482	0.02581958338247668
0.004107329245683853	-0.009859909669000386	-0.005303919975443582	0.005537657478961484
-0.004817474606925146	0.0008402039885697508	0.01580453131945784	-0.02849169302491138
-0.007023322899330853	0.01008830738898436	-0.01475764551765148	-0.0513317759120764
0.0049487778538481	0.0006817598002568746	-0.01367340451037159	-0.0171100946220704
0.01570860463038954	0.000870540572154291	0.004404286957529639	0.0220895950171432
0.01420690954238431	-0.004855424387200769	-0.02678977098805179	0.01019191939748494
0.01328699118783932	-0.01025225561086134	-0.0144985494813719	-0.001499863662798226
0.01088255193952949	-0.005978353060762016	0.03647881295587851	0.00474736428077197
-0.0005853155715964574	-0.01152730949268183	0.0567019464327899	0.01669936799423798
-0.01034034590022651	-0.0090971743421572	0.0377380676570465	-0.003997880118801696
-0.02266679862242742	-0.006225991659549268	0.03710341146882716	-0.0422034108367105
-0.02866220107666329	-0.007369676096001706	0.02796134583732673	-0.04281980637076271
-0.03123821732442804	-0.02568942732117385	0.04384061073342198	-0.03824944465836817
-0.01088358886789044	-0.03567105397559445	0.04338320656844927	-0.01620926772520364
-0.008222721788563845	-0.02637289104987508	0.01945951843172376	0.01910742097285656
-0.03603643681153348	-0.01649950659459148	-0.005488283161925208	0.0107219261528937
-0.0594826804548591	-0.009855657936889006	0.000845525681779065	-0.005276751298892749
-0.02679876420194159	0.00249664081459833	0.01325857642557531	0.02501126703991252
0.003314771817072766	0.0175059766586124	0.0005435611860172148	0.03202936557921162
0.007961356499668391	0.02286144140047042	-0.05776729894631354	0.04529647190086696
0.01316602632519552	0.01762155175882786	-0.07667157192349851	0.04390996053293572
0.01589890556719973	0.006303458382353013	-0.05812849318499953	0.09691298160261212
0.01928147464277552	0.009644372176169856	-0.04414442834413231	0.1152298846790178
0.02368542382212692	0.02004038858758441	-0.01438762609932407	0.04504115087249513
0.009153276353182775	0.03044881713280212	0.06731056994330303	0.00243107612886727
0.01940793597534138	0.0222157144788754	0.0606749443464713	0.01328842680052067
0.01660415846876189	0.01043474437285578	0.005910361670644889	-0.0004067403850466772
-0.0003518059819948054	0.005571622298299263	-0.0231648485178608	-0.01091344773514139
-0.005214559909708534	0.00424329860935035	-0.06467759691867686	0.01742206005396377
-0.0002437264144998375	-0.01354995381772808	-0.04919632605936117	0.04236216137861448
0.01526237281423213	-0.02617083045575832	-0.004602417558063247	0.01932288681043623
0.01746979071314779	-0.01046215619449966	0.05712703880762623	-0.03467913974841056
0.01320293305935175	0.006242720175437896	0.02871146843184312	-0.1190602848251754
0.0163920747556721	0.01156811432634168	-0.0002402559958738632	-0.08772909466004912
0.03600278422357769	0.03910150699344696	-0.01544171827993595	-0.01267802610898263
0.02381478404594712	0.04143694183115548	-0.02991507975405365	-0.01353958275348845
0.02316084129256068	0.03258328971633052	-0.0237805457210499	-0.01619831713606184
0.02687519195927325	0.01788747191855367	-0.0237883613106565	-0.01850889394901411
0.006492881120813303	0.008379136868732463	-0.01332069647441935	-0.009790510298748523
-0.02379285985884406	0.001227360318438838	-0.008361775547315367	0.01154978217442887
-0.02938398136327178	0.001708362622874982	0.0295393807762373	0.01745170456394722
-0.01539019648815359	-0.002562073631946937	0.008370557763164407	0.004574007865083531
0.006149439055369188	0.006355291855987146	-0.009307117658482701	-0.003718412221829528
-0.001364391941209343	0.01436575395918088	-0.007055839035028978	-0.0007316082411450217
-0.00261420230585995	-0.01538832336564367	-0.01524891848081998	-0.03151441906607484
-0.003001348123221391	-0.0254200950132555	0.005081992483973155	-0.03664057251214008
0.003052035316088895	-0.01579179829153348	0.02390730135605891	-0.04882054573508216
0.001597936860419695	-0.01265746334171959	-0.005850386313750774	-0.07433887654458234
-0.003008713021271062	-0.01259443763195343	-0.006163927316076238	-0.07008370948196667
0.003070113570005602	-0.01193045644336276	0.0009657837385132229	-0.01114227490080967
0.004403625110512888	-0.006655993579518228	0.007515159895268359	-0.001740844586767928
0.003243086061349121	0.01525513739195778	0.002554670182365303	-0.01976103398243849
-0.00305780409898351	0.05618561510439597	0.007276337025905951	-0.00271558376905519
-0.01753088574614662	0.05138008837612521	0.02232350545145162	-0.0007222045317590236
5.232419095088942e-06	0.01568153876070063	0.01412956768995964	0.01850956512416745
0.009786512988355447	0.001229391139624685	0.0287416207892313	0.04690710444677103
0.008340709648166977	-0.0253946392544305	0.03614265807236589	0.04067056391907333
0.02444269189967587	-0.02842794987742192	0.0337453100102058	0.05497146045175982
0.03777222148381062	-0.02573820045567944	0.0389717592543359	0.05737017859565247
0.03465539559677575	-0.007148599485291842	-0.007199325658180993	0.04621422109962431
0.0286167509744562	-0.0001546051145044559	-0.03495795313759265	-0.02784905518122254
0.01005262323524738	-0.01818357317377807	-0.01381509643766407	-0.05663182572445161
0.01053868778802606	-0.006734687508809724	0.04066501280930799	-0.04788255196648165
-0.007851901767459557	-0.0008719929605932163	0.03635615487084438	-0.04949107187961044
-0.007237164101465464	-0.02530696626445656	-0.0005314474056282682	-0.05553335081968665
0.00729466097460065	0.008465190078148995	0.003354179061033057	0.01768794253069953
0.02050135713411117	0.03714845130429478	-0.02251545291119906	0.09746961922740945
0.002337586300388841	0.01865134840717351	-0.05286627189524613	0.06998981151552058
0.001517091969301533	0.007237172617667626	-0.06201931499674846	0.04978251805721272
0.001921624067168374	0.00572734784142668	-0.07855641686910665	0.03150373522758099
0.01226108781375798	-0.003571208788750234	-0.05986743056033422	0.01493943697582103
0.004572797875257557	-0.02132873421435353	0.05401760440855154	-0.0008286218402874859
-0.009228092889357891	-0.03360227846120605	0.05050441398992257	-0.01983878980079569
-0.005292759533891291	-0.03295518032090622	0.02566333390248604	-0.02889610218985433
0.0001885979968928975	-0.03083913722823141	0.005236425916583436	-0.04910050513713572
-0.007988630382897386	-0.0232745492680732	0.002302049058238114	-0.04988819133136218
-0.01449779558470188	-0.01872412470071096	0.007553621658027658	-0.05226905033428458
-0.01715294369529902	-0.01104480832629265	-0.007764105140948331	-0.03833353258066739
-0.02338987298064893	-0.020427473840574	-0.01882918580309139	-0.01609626191770138
-0.02383582667187961	-0.0201278233994397	-0.0193307952716116	0.06264634296665289
-0.0396152570551744	0.005467022977369467	-0.01018138687391912	0.1370726336786401
-0.03323699052492345	0.02894911932832061	-0.007903121401655482	0.0876989050535837
-0.02188815363102603	0.0448267041987036	-0.003202925524355843	0.03943776473577658
-0.01929289452895631	0.05036104705869306	-0.01437185452463468	0.04436486814112373
-0.01799630980520047	0.02563551329099707	-0.02147601343376558	0.02784942212838187
-0.01371575692780976	0.01301389218884931	-0.02499050361885411	0.04232589668001139
-0.003827024288638751	0.008433271794298281	-0.02068739374422779	0.04899866796311191
0.0005389863291266625	-0.0008113442834653095	-0.01884645745727038	0.04492838631909239
-0.0212048371464889	-0.007336362917007291	-0.002780558282855281	0.01324376295742913
-0.0267569475235473	-0.008851444243861757	-0.0292808067552475	-0.03227757524894683
-0.0139470069697229	-0.00739614303457565	-0.01881176830574279	-0.09710302356348433
-0.01546899062792425	-0.02428604163170566	-0.001586435358970864	-0.1048349568487479
-0.003955347481568011	-0.01852731228945442	0.001607001963175109	-0.08776062465455788
0.01152466706108564	-0.006526371789797034	0.04509059751969078	-0.05954102189214715
0.007067101762190995	-0.006169337699235233	0.1155833340131021	-0.05326137754629189
0.01396804723915326	0.004169226135041094	0.07257239984901503	-0.04313332952923034
0.01472397488756476	-0.006812725395578431	0.03783550956757691	-0.02409076071881831
0.01798733414994078	-0.004805643282478863	0.01372965335619102	0.006956326385338549
0.01548907750217762	0.01766711341804295	-0.007116797085338353	0.07360744623908592
-0.006008771833101719	0.01846928099209142	-0.02578736073471398	0.05958415863115638
-0.008167789626833016	0.004530275444439028	-0.0007408377804225687	0.07478630839191684
-0.002670584362026945	-0.00199615246707747	0.01310007619131545	0.06581070208467978
0.001748961806269511	-0.01375846449189562	0.002630052781536749	0.03035850484929348
0.0002304582798491328	-0.03452689751883109	0.0002303299461388296	-0.003307293419739528
-0.0009990163422169548	-0.0334476360769798	-0.003791419713369914	-0.07258480337100587
0.01335101188987455	-0.02161384053312446	0.003081930683265381	-0.08830378873498998
0.009767972418170762	-0.01446561973225061	-0.001714002727780513	-0.06690107505886161
0.01021790070472414	0.03464931117612086	-0.02278669008476896	-0.01263479673262046
0.02957163168764948	0.08856022857129391	-0.01942086541535127	0.03273975159437581
0.01424254500351885	0.07353864921058759	-0.001249727132973826	0.004038111036291316
0.004869885450973453	0.03554584856729085	-0.02808699184175898	-0.03016553438703723
0.0006102627275156339	0.02644395578128406	-0.02671382837486599	0.0046441637270892
0.01033629104252012	0.006783595056812012	0.006831033370517974	0.0103655300990693
0.0159915695835963	0.005634629338334576	0.004005352397975144	-0.008245233152785945
0.0136395821170368	0.003540784643016739	0.006184002159983228	-0.0212996935948048
0.006124287463687113	-0.0006813912887649153	0.002196125644307698	-0.00884516575137405
0.002048109779097465	-0.005066199371206599	0.01502482638091199	-0.003471975638789246
-0.004048091199210429	-0.03620457715245914	0.01306009201787784	0.009121187092561857
-0.01999243844745044	-0.05069293375671536	-0.006649873743276728	0.001059277484289822
-0.0116301158287487	-0.0530630092585222	-0.001745212929846281	0.006707924935369985
-0.007715665711611351	-0.04787016252205582	-0.00239014317564672	0.005466463558385664
-0.01391430086274452	-0.03245887910728069	0.008829983606176362	0.004478922928300853
-0.04961507620101033	-0.0269516433399076	0.006762112261201645	0.01090791623861597
-0.06084085008365014	-0.02417860285367503	-0.006833970388583768	-0.0005375854000220802
-0.03491077346403389	0.01517660117237627	-0.004697181959462221	-0.01930384971931913
-0.004856441425345081	0.03639030780740259	-0.02459785569205548	-0.02818103128218229
-6.235756613990201e-05	0.01374217322732241	0.01619666799449486	-0.02313059756015825
-0.0002070077229458991	0.0009278894676460376	0.03510983769100798	-0.02104791476927739
0.009209419737788571	0.009942874777955815	0.03358616671287497	0.009536874643237476
0.003990745578188409	0.01187938944087655	0.01123298357717364	0.007147379352025472
0.0002608472006932084	-0.0108513667105599	-0.03108935608784994	0.01842423979347769
0.002602276129351497	-0.01354279805968252	-0.05389888581403054	0.0181554510691378
0.007205129090684903	-0.009740900977644251	-0.0698368948219186	0.01304432846871735
0.02066375112995307	0.006037972075911681	-0.01823865737095708	0.01596836941174933
0.03403131996108583	0.022848940663531	0.07580864556811354	0.0251517550140061
0.02772567204757554	0.004345885386820337	0.08698634010925889	0.02375608184186388
0.03177825431856592	0.01919155385843609	0.03772249103818709	0.008327981531735034
0.02980582156840256	0.0228547880012505	0.00395574521133301	0.04006710763894122
0.04214406019444875	0.02449876877091329	-0.03617028029081521	0.04133095462727192
0.03333696145399603	0.007842412314664645	-0.07041152688747991	0.004296655955419268
0.01963448573705232	-0.007091124653087436	-0.08621176186177162	-0.03507161184136581
0.00444723032422615	-0.01758332175295432	-0.01861951573347857	-0.05342888518681609
0.00150405326752928	-0.01783225222880866	0.01468308230534849	-0.07345514341678214
0.003952922406596722	-0.01801256295568724	0.02854746006594457	-0.05695067398234532
0.005750781903113948	-0.02529445093041337	0.04835947486714009	0.04872700144564072
0.003074311739332607	-0.02087103506501311	0.0631037765437279	0.1316518677871138
-0.002356320309786109	0.000282495507379307	0.03642884469277675	0.02505336074859462
-0.02234811904998027	-0.007956217381499448	0.02261735137290784	-0.04786138092059383
-0.01909555629907013	-0.01531999333298886	0.01216342263004951	-0.04311917734231325
0.007951920226730321	0.02564846476131052	0.007846512584583633	-0.06952286714800589
0.01747920063012913	0.05177446365229627	-0.0009233998754629388	-0.06697612277909365
0.003523447506909793	0.05975558434141195	-0.03621992295785503	-0.04851743438311272
-0.01231161353112237	0.0193383041308938	-0.03822605415074045	-0.0152007432920096
-0.02914371558195874	-0.01388009273816771	-0.01342694326594548	0.1346083394124536
-0.02346922183372069	-0.01770369133116358	0.02092634631174157	0.1520801038425527
-0.003000214378206135	-0.002290180131993305	-0.01375779330966261	0.06673089544566486
0.001354987044798383	0.003037080219005673	-0.0483930162725092	0.03801516040016101
0.001936263533121938	0.01053121623451991	-0.0486296675538871	0.02475275866992442
-0.001526292406476125	0.001266816009456888	-0.04450074219507469	0.01611209173466237
-0.007475489815838204	0.01031234823959485	-0.01636656102159618	-0.01942367550207961
-0.01497635747413839	0.001888221077662067	0.0104756645956378	-0.02871803648445336
-0.02037514967435283	-0.00419326294869236	-0.01247941862179043	-0.03083582024032936
-0.01015367327402588	-0.01417372229468939	-0.0621575519146994	-0.02636735501682387
-0.01214860802887101	-0.02567886099608328	-0.008825790937637201	-0.02365554823876002
0.002554457449529986	-0.01506795040460136	0.01204243954218908	-0.01063365259759422
0.00986915165838476	-0.00768558771331199	0.006087988754226133	0.01354481523466192
0.01633938519608247	-0.004248077762562068	0.1148107282508394	0.006923244905601062
0.02119187932915895	-0.002326017749996681	0.0915563957094143	-0.002718647851096311
0.0216743856313477	-0.004612770434263359	0.03747736763993786	0.01606790725686203
0.03221284483232986	1.762644194505404e-05	0.02154790818839371	0.03264691545702585
0.02518190890964175	0.003584592326367652	0.003285400010713702	0.04290725926472239
0.02369558652047997	0.009324675138657109	-0.001843925508488961	0.02061659467118163
0.009656556073421446	-0.01335402717130573	-0.01702312397425865	0.000880800257247914
-0.0009192407478398254	-0.01289418175091041	-0.02551376950369194	-0.009109143912846007
-0.009939770490403345	-0.007633029176258258	-0.03212427218903354	0.001509250855541258
-0.01721727177283543	0.001642605617616286	-0.02682130758725296	0.00907195827256454
-0.02961349607824198	0.007276814508088468	-0.0112299579330782	0.01825150005024525
-0.05753545571317477	-0.007214432571193308	-0.00169238433581929	-0.01392410488976797
-0.04346668455163281	-0.01899001832603461	-0.01444628441646046	-0.05075915228985928
-0.03271998007821149	0.01527623224891679	-0.0148571356398123	-0.03740250032317263
-0.01286485624869292	0.04598611505185917	-0.007244064778514191	-0.01790895345932328
-0.01207454346804591	0.05241449749415003	-0.008538804563433628	-0.01892562626293175
-0.01815639253460748	0.0344928256480944	-0.02945274346125111	-0.02419822708696355
-0.02046536883955687	0.0249817006913758	-0.02960212365869631	-0.01892552596263419
-0.024776873076724	0.01327370221990506	-0.05186378328640445	-0.01509101089273094
-0.02649139104125486	-0.003194084766866738	-0.02115903039901393	-0.004416164040525954
-0.01747243322454804	-0.01234922452055204	0.01502958615501871	-0.01344642264234272
-0.01002757215866805	-0.02615605040954847	0.04129563232191839	-0.02056472406043101
0.008006732050401848	-0.03472858518760603	0.0494063179224444	-0.04308885578813468
0.008459370834459417	-0.03091158703803321	0.0003450951750681857	-0.04254150232278148
0.02165939184267778	-0.01533977629503467	-0.0175304223473541	-0.04700482638794845
0.03790971948801412	-0.002380466075446604	-0.009557558530173052	-0.05615554185052569
0.04486716771296132	0.005670439737405911	-0.0008129078427654707	-0.05077973681464063
0.02913189454400844	-0.007826146183516087	-0.001086479354619793	-0.03465282297666728
0.01536131505637956	-0.01161632840878199	0.02675061539018076	-0.0009886147213278667
0.01371449298984146	-0.003155293559423142	0.02879521194634266	-0.002591138665032373
0.01198941500271298	-0.006636161062130855	-0.0191472642296649	-0.00963311481970219
0.003308336447455099	-0.010630946114142	-0.0212879070318945	-0.006775237507681435
0.01070773840425954	0.006340030047810946	-0.01019920630329496	-0.0009850687232902729
0.003240040096314396	0.0001341328316980369	-0.004830317861409661	0.01015907231367962
-0.003366348366411428	0.03800526085566241	0.03487792210707633	0.04593168323093971
0.008033354516397842	0.07086762370266757	0.09511941499176969	0.05253714078361776
0.01078141359597572	0.04241079769281621	0.06827983981549249	0.01980177399955901
-0.005279720980274086	0.01801590407914116	0.04508581027096313	0.03268505821701975
-0.005864982797177366	0.003349824415307322	0.02449981301948359	0.05120021625038307
-0.007328178158248028	-0.01304005524840632	0.01360099370170967	0.04708799570797659
-0.001535555365799801	-0.0261768103406611	-0.02623427971582852	0.04740003214535001
-0.01038088221882784	-0.0220663651982281	-0.04292079872253235	0.02788411783941656
-0.01772810665232533	-0.004569942036307634	-0.02832416181108848	0.02213083551319285
-0.02201471760812628	-0.0146375803942786	-0.013333614392195	0.001556469594479905
-0.0300117123723347	-0.006736762980448254	0.01356174391281872	-0.008225134818653251
-0.01979575930831327	-0.001947088045077364	0.04325024537350737	-0.02712362618348764
0.001026354574863029	-0.001656149032211198	0.03314111342449878	-0.03998167143468435
0.01839509412614286	0.004600880680675006	0.01328451154448641	-0.07916054939168023
0.02399115151924867	-0.006711305866242787	0.0005858741263411212	-0.007442122526151818
0.01924910605765014	-0.01641126025474132	0.007809046250250122	0.01336541761084425
-0.003238859625426044	-0.04827290391899355	0.006713849612135159	-0.02696047214212503
0.0007754442670861457	-0.05115503222502568	-0.009136628562037855	-0.01385752136910216
0.004378967101148239	-0.04232200213399633	-0.02595741964841544	0.005207940535684746
0.002604688122924494	-0.03837768641618153	-0.04850202278052341	-0.003570805187360769
-0.005188207029025201	-0.02923722097138954	-0.01592112942361401	0.001987847883374464
0.008999642677704383	0.019845597442926	-0.003079834060353027	0.017592818609048
0.02473849695076474	0.06583672105523508	0.001616348330395165	0.0660598475302317
0.03633097412952786	0.05117476994026083	-0.02304955427532425	0.07184379652162748
0.02192270915372495	0.01940470908954824	-0.03457253253852864	0.05016874492179516
0.00461863695270866	0.01562166143897796	-0.0212861795726038	0.05637628041404807
-0.0002795025935192341	0.001691905756967601	-0.02399223577758982	0.03517411932084093
-0.01286833860602131	-0.01086589750600656	-0.007125289375036964	-0.06151794319872152
-0.009555019273571207	-0.003770638222133338	0.001963865166353548	-0.0799667276727937
-0.006231726878053805	-0.01629511734603733	-0.0105218480276531	-0.03390454731510636
-0.01645043689715651	-0.02041849837302808	-0.01828696827088103	-0.03322657930723222
-0.008503958258281673	-0.01548379322411168	-0.01374054486019747	-0.01815929820494442
-0.01150963042909852	-0.01421991255742551	0.0119064863700728	0.08874799127033342
-0.02111337089398068	-0.01327307007106337	0.0172131299030093	0.08054861903334537
-0.008542790265069345	-0.004486260200532859	0.003155471497135625	0.09855029450424353
-0.004848605008461447	-0.02097739956160699	0.008752404287356866	0.09474451690778043
0.0006187754053798037	-0.01710604037734067	-4.931962317743923e-05	0.03452064340349522
0.007226034495600873	-0.01692951872271637	-0.01417638507028178	0.02130283514895532
0.007985805980051598	-0.000928943662757769	-0.02076088132178847	0.01316667750879655
0.004648530395784702	0.009054356260897895	-0.01513432900792373	0.007178350536736212
-0.002779122183086601	0.03163475482662063	-0.01993145938865998	0.009112441515069679
0.00810600986565555	0.05031211292229713	-0.02291119422259493	0.009747407476107486
0.01422144581676595	0.03292346496092115	-0.009909430763010181	-0.005279370407841043
0.01730146388578739	0.01367439793748711	0.0007538165410609463	-0.02361381981282205
0.01176928943840628	0.005564482947962247	-0.004186495957941386	-0.05014432425389414
-0.001069899635363289	-0.002251180576481323	0.0005515561871285535	-0.03887179958853367
-0.01325076122204347	-0.00597328935288961	-0.02896341803859941	-0.0279316886771101
0.002177059727511731	-0.007947500857562743	-0.01671024677548664	-0.01576222167486682
0.00308108938378559	-0.0005823535130884893	-0.03493640244346247	-0.03583900280099716
0.005055964117352749	0.004053854876383996	-0.02074436976416997	-0.05881502094477711
0.001517236620925377	0.0100958006766291	0.0972131066717407	-0.03329499655256359
0.005063627310845045	0.006354213794908527	0.1061863419576025	-0.01183383437536085
0.002312913651631614	-0.009297766007184129	0.01725669352840096	-0.05203949936315989
-0.007582270636149029	-0.007807701430718404	-0.02357031587629514	-0.064373347329365
-0.02058514483529037	-0.003451998185568821	-0.01847656413636707	-0.0535993528315031
-0.01402128881599652	-0.01162789451414148	0.04782185413725393	-0.04027676631990348
-0.01109694076957848	-0.009819308350946422	0.05524784020953495	-0.04888826387745137
-0.0005998965735274262	0.003490421130537578	0.03920932499914507	-0.05869847071138306
0.01348354434153495	0.03182227341163531	0.02982020274855177	-0.05639484915087081
0.01901629015097755	0.03734568485976413	0.02795506741764962	-0.04359789460548739
0.01364710738943643	0.006089317766039703	0.03642701516174914	-0.03514998237430513
0.0001286150134086958	-0.0109825659115514	0.004539021244069163	-0.02750660385640973
0.01171481065182902	-0.01519723901359846	-0.01351322929691161	0.006721753257827554
0.02132575812484427	-0.006254472253703276	-0.03160573511966529	0.1059691884670828
0.02935790306224918	0.009750140954653524	-0.03896505663028792	0.1224869889651428
0.02245675287691453	0.00780153662191256	-0.0374263259470883	0.07310491727377001
0.01617588389733824	0.009131973006534694	-0.06046604249591343	0.04331047672332239
0.02056956932909834	0.01672283435739406	-0.03792524725534308	0.02537379200388933
0.005998819172798208	0.02048786445894935	0.01553472931755363	0.014266733721289
-0.01191151961091795	0.02620243168450068	0.01929888640040183	0.04766306307257603
-0.009149692824902094	0.03290152992317349	0.03050883387832526	0.06820017826083406
-0.01772198325524611	0.01161306473864273	-0.002964243010345321	0.04276460702610279
-0.02608860518867451	-0.003525365153213403	0.02384922006771037	0.04909557480022286
-0.03543940071357684	-0.006461839288181144	0.03199193703877341	-0.003846693990490213
-0.03621781361003929	-0.0007728076695383761	0.01423222690412896	-0.06608633615874694
-0.01805750378687469	-0.01805919643493279	-0.0005974189436135719	-0.06701255462194351
-0.01209946253907659	-0.0274880755136759	-0.004359916665886036	-0.05902017640249545
-0.01861832614449089	-0.03004695779307619	0.009878086684367675	-0.1020536517848924
-0.01281440277584084	-0.01316552875063901	-0.005268348736286256	-0.08279296929153274
-0.0009124915952795107	0.02586150748283495	-0.02194410137165325	-0.01989048527973739
-0.004871543302866904	0.03520384651055385	0.002344038865118195	0.0184420537407804
-0.02126244677519806	0.01052743299788627	0.004038769557014038	0.02884556244332026
-0.04015736849240843	-0.007045802864797032	-0.0103567246284557	0.002653447407155029
-0.02548828052607202	-0.01420363347105954	-0.00725453075557954	-0.008287675720241559
-0.01684766328754529	-0.01355682903536833	-0.001521349760579532	-0.02674889512953819
-0.02114786595947054	-0.03707053674425523	-0.03058251005280769	-0.0428079519567964
-0.02190230900002488	-0.05573212789602807	-0.0661779363485215	-0.05913518918843878
-0.01868549353357472	-0.04791875405273995	-0.04426695246332416	-0.01432879549228909
0.002386198134336967	-0.01253585479302245	-0.01535177680764424	0.02634220961570067
0.02211475743179297	0.02628690819284152	-0.0162926621462136	0.01505656177274559
0.0341579145244679	0.06029577330488404	0.0122959388279518	0.03765703483658572
0.0286577962164223	0.05654805976477383	0.03439363812095381	0.1321451987183461
0.0202104870393396	0.02913146718015859	0.008712297303761331	0.09777056616110132
0.01452469825512244	0.01480952114508547	-0.008670741294634453	0.01978870040952277
0.0174726037334676	-0.002688424293590028	-0.02072871828531198	0.02225775364009158
0.03655349962218916	-0.01050062637579739	-0.009045848971823192	0.0317738186001004
0.03712990608420547	-0.006737992116028334	0.009179218667783437	0.01702893316816511
0.02000691953240501	-0.01942998430197563	0.0143314792379667	0.01225776721207555
0.0005192819210523346	-0.02594536459095349	0.006683347942529879	-0.00884885470985799
-0.01411296345530847	-0.02536444589931254	-0.00796422609221892	-0.02762125237464304
-0.02054442528306138	-0.02299719063553883	-0.01249118717948831	-0.01646930134086756
-0.01578594648657097	-0.005670001791500699	-0.01311128274408315	-0.00695031023839895
-0.01995274632469934	0.002092344212938876	-0.01373124218544342	0.001765316462866876
-0.02767721509712297	-0.00198322337324588	-0.0122647572441363	-0.01958745337377259
-0.01188701310529458	0.01354710414878035	-0.008372912045702287	-0.03066712538512971
0.0114205837199475	0.01412512431768565	-0.001655002686385057	-0.02098973593205602
0.006632644755216309	-0.01195213866808724	0.01428620405215168	-0.006981578608263303
-0.003461441331548547	-0.02296683206185567	0.01324791438917448	-0.01777563172477432
0.003796301687495358	-0.01506945852808905	-7.980888797110929e-05	-0.009702369593452602
0.002750669307564809	-0.009206288341133311	0.01322639025654345	0.01254283917151833
0.001347067765943168	-0.02172424014075136	0.03418708361564859	0.01476272275649018
0.002219315123614498	-0.03052348707641944	0.006530775524744669	-0.007323696674004261
0.005572847526679325	-0.02747874888200074	0.0130656429012715	-0.01695459087096997
0.007473184155076086	-0.01824001998131103	-0.01127565646945767	0.01346195111747607
0.01329401534905007	-0.001548417324925519	-0.04569440115137485	4.809951688076893e-05
0.01577728198757043	0.01131476069322521	-0.01358605358066058	-0.01065914393220151
0.02678567049503841	0.01399025586103601	-0.02351079720780383	0.004926498257124782
0.0242723644298078	0.01000156023848372	0.001886003000818657	0.03006690936510928
0.01856283183204288	-0.001247163035206254	0.04298746221356364	0.01706834849256276
0.01607870899908444	-0.02538668136989933	0.09370993243587433	0.01756724555169343
0.01005905260825797	-0.02686255857894322	0.08012472158886906	0.1035321142177679
0.0003857812708866929	-0.001688604969760774	0.02561251186596069	0.1825273838752879
0.001896941072602407	0.00839728556489882	-0.01824633496450771	0.07413365821192555
0.001483018795348623	0.01173082311319212	-0.01197977424543717	-0.01245456755027619
-0.001403199169682637	0.03482899110608225	-0.005863024458455138	-0.02447887284716379
0.006034935365621328	0.04295452558475741	0.02929858135509822	-0.05245126055197591
0.001668557911822387	0.03113475842998415	0.02589524489436966	-0.0536436106820434
0.008393544561975125	0.04480058375764617	-0.0009486487897409952	-0.03168160641606456
-0.001011818878462842	0.036843793303184	0.004788649546061707	0.03111641708074845
-0.0208491980449061	0.01401211708592834	-0.02184855458414916	0.02618868292380679
-0.01689261814120079	0.01401183536676862	-0.03048563128999178	-0.0005178222684089909
-0.009927955624421307	0.02533231889461284	-0.04352844826447057	-0.01622351156384925
-0.008335703819484935	0.01289911283066082	-0.05821364697331868	-0.02315350833569554
-0.009695416761060945	0.01040492181038501	0.01157752986840404	-0.04084547963015173
-0.01420746716242813	0.002488280092439157	0.09341753219195678	-0.01581652266169075
-0.02212116742070631	-0.01054295322588428	0.05632086667472228	-0.02521575072927801
-0.02944263110296862	-0.02052434586226696	0.03981974729672372	-0.03194520329216553
-0.02157624608752101	-0.02696503147277925	0.03226588974974082	-0.03809038231095502
-0.01076912448482006	-0.02532449850801016	0.01403988146327002	-0.01748069119950574
-0.01185474528731226	-0.02623014525172871	-0.00149752412870967	-0.001100286176692746
-0.01305235759657815	-0.01169316723309294	-0.01388868668811049	-0.0006454712882582142
0.005968467411495907	0.01515578119303078	-0.04071359072207715	-0.03943380816784105
0.0108136182973692	0.03398393985861033	-0.05175440677367098	-0.03800224361416884
0.009046695437636565	0.01721689109365707	-0.02733285285107474	-0.02397897496465852
0.003691170441253357	0.0005850846562873292	-0.0179167206746615	-0.00516233490111092
0.01784519499742694	-0.01483551372590081	-0.04152581690302622	0.03496513092113319
0.03319231813592159	-0.01203104838705849	-0.02908592696636193	0.05057973788182801
0.03245813434340183	-0.01775279175251146	-0.009228427348434504	0.01658716729617971
0.01793418327476465	-0.02177296036297808	0.02754193436988297	-0.05500166002664947
0.01920568013130083	-0.00691600448625052	0.008193705420064749	-0.1116889755233622
0.003286513007420723	0.009760523226765554	-0.006909105236486272	-0.07094417755584388
-0.007204559168921419	-0.006092550696694466	-0.03427119155984303	-0.02531378296515369
-0.0119265889517728	-0.04413835109401391	-0.05394272792980557	-0.04874865700413353
-0.004851111945943233	-0.03788607883583297	-0.04907500931458714	-0.05165619562486884
0.01505088627208986	-0.01999628278959184	-0.008190808279799434	-0.05826052232908502
-0.0005951569428247637	-0.0239507844972253	0.03122186288831959	-0.06624880244940294
-0.005744306450211283	-0.01136294926420626	0.05152745500361444	-0.03961569224150475
-0.006342262715132406	0.03093482407364807	0.02946194600362274	-0.03382115396447198
0.001101083619329687	0.07908013257953816	-0.006266194412064607	-0.02707815866397252
0.004900821734599846	0.08777929424407666	-0.03027379013386337	0.02255383818575091
0.009040400733755045	0.06131834948206377	-0.01066506076931586	0.1336229396465243
0.003391104771628816	0.02565135360407923	0.0006014748194993258	0.1384437550619864
0.00773582065233218	0.008636444162266917	-0.02502219600950677	0.05411271259608869
0.01376784289513265	0.0009871477902588966	-0.03062722600968844	0.02147419954042782
0.01557502355068741	-0.007467533089858811	0.0006646412511985678	-0.001743239185565589
0.008596950835713494	0.001413806392878868	0.02661895839965319	-0.005092115681383898
-0.002692540940615315	-0.007176043640389881	0.005282546171634577	-0.01410687820478043
-0.009846818437185404	-0.02290225260521297	-0.0009559641679019388	-0.02602383027178387
-0.0006042514777841096	-0.01718427243594302	0.01185962254925996	-0.03129382535281293
-0.001249312218601986	-0.02528221809917761	-0.009470999687996634	-0.02396227064118172
0.002111728630180509	-0.02650305207304913	-0.009734893566677791	0.008392835839511403
0.01525770941749092	-0.02098179041687185	-0.01168732330160279	0.04100551868891717
0.007015000537394423	-0.01702798160443393	0.006100608960596758	0.03207647825126061
-0.01414573969888212	-0.01477916135924095	0.01404036808997202	0.0360142433166282
-0.031001305595228	-0.004207690759454817	0.02948038545473218	0.06263245526176492
-0.02207802353175285	-0.008751333560379963	0.02868022686927284	0.09661875001444274
-0.03694589796954247	-0.01497375758420735	0.01335689705155002	0.086078409171522
-0.04751613771705628	-0.01415292836027195	0.0375645944944522	0.05795233796493261
-0.05805038493961815	-0.008803987453238625	0.019125856490919	0.03777180186321101
-0.0323940892320904	0.01048298053265789	0.007214175384464478	0.03211721249771602
-0.03418673552562809	0.01547315597096393	0.01684562967079912	0.02236294661378431
-0.01031417473682222	-0.01025056106639921	-0.003359796116850864	-0.006441166363356615
-0.009165073578185997	-0.02241513203592635	-0.01411943336028264	-0.00994964002654127
-0.01533771722177663	-0.0230288656418046	-0.02553550398866494	-3.150937348729151e-05
-0.009574586879223811	-0.003628204104818099	-0.01678365499349414	0.01801076373066125
0.00374374512861656	0.04058837681575882	6.67950371990327e-05	-0.004806868096596847
0.02241859338343781	0.02743659746090896	-0.001119012944812816	-0.03967905971621772
0.01020603774719537	0.006334000922294242	-0.01130974595473453	-0.0494601561765448
0.005799454896039677	0.002078397897659558	-0.009089888340944163	-0.05413217389835004
-0.005129249988405962	-0.01144729925823027	-0.02263308044155056	-0.01547017304518728
-0.02137293775228324	-0.01901715873434888	-0.01763537597496057	0.01456377038957969
-0.01519540950364553	-0.009403649584914318	-0.04153635881865311	-0.002943668124440643
0.0044407892740043	0.003936122467156813	-0.05874990413198694	0.01873227235296923
0.002678538474449897	-0.01151242221454774	-0.04053739382079038	0.01348854854537489
0.01703671113880618	-0.007320795584870923	-0.03184394569098391	0.001005228878043139
0.02171161016656793	-0.01167003162899637	0.01874393099849232	0.01980787316450589
0.02202623593015756	-0.005863821528405659	0.1075577739189702	0.001131043673138246
0.02744113683506265	0.003441354296030022	0.06303827575465841	-0.0133661272009071
0.03463304860908412	0.02211228995471845	0.04158907197145466	0.01415191794431288
0.03713482272093125	0.02861985909409596	0.0152529116842448	0.008361203626881862
0.03797937854112773	0.0172888763144073	-0.009596433545013851	0.02872940655737556
0.02982595971266842	0.003181122833368186	-0.002136147089247035	0.07348141192802309
0.02438429423587892	-0.01218939623519732	0.02080388940592542	0.1796301992551999
0.01244537203131795	-0.01679618105483635	0.01570343981800633	0.1647072533339243
0.02532904134914319	-0.007874440097712834	-0.0142539960592961	0.003204425140227971
0.02940112683523651	0.01251804414801912	0.001477277473341972	-0.1248788819062814
0.0151166254483744	0.00548637149952493	-0.03853231497860045	-0.1324868026145266
0.00715837362628548	0.004851710162582709	-0.03333359857066887	-0.07852690741087646
0.006264794926092448	0.01739814701480961	0.009156206584609106	-0.04744190587392912
-0.006291590435355845	0.01692925755131655	0.04616433678302453	-0.04570287541782252
-0.04084445245749985	0.01305647071753581	0.05382599109116452	-0.05779753451473046
-0.03426889373681524	-0.003136688783424065	0.03455280605234275	-0.09021905585722242
-0.02120261575081448	-0.009171415778686531	0.02164697416798504	-0.0661911260385587
-0.02265727587360408	-0.002159904261183178	-0.002634492637991729	-0.04796925728084524
-0.02009511491070017	-0.001764857022514619	-0.03312865658014216	-0.04504290969373346
-0.01472507440028792	0.03151606991731356	-0.01290467146969072	-0.04333592059496059
0.005242811898092222	0.03572378533419232	0.0334856939980556	-0.04850580399381711
0.007626606511514493	0.002705364086531447	0.0452642933793537	-0.0291361788552997
0.003440753277816368	-0.01573664532716468	0.00500820455196167	-0.04023239398921642
0.00193816168091118	-0.01760225357910294	-0.01141941641857392	-0.05814420755004746
0.01045370487370356	-0.01705231923898374	-0.02787908383466457	-0.01727836775930827
0.0159707329208827	-0.0191448316631323	-0.02865537510480216	0.03362194590745985
0.01574920225456633	-0.01239658581935282	-0.009387123113830279	0.05600986795184643
0.02952974065167493	-0.001508325082735242	-0.0296121238276993	0.07301806705766997
0.0240010705888912	0.002339807712618773	-0.03972963805844928	0.1010074076910821
0.006864195534167655	-0.01629660302570257	-0.01603758712800761	0.09031111679810087
-0.005078835241103388	-0.0202196570582531	-0.004648003890486477	-0.06468449436329919
-0.01624329369686863	-0.01594736710880461	-0.005408229871304091	-0.06693431303606522
-0.01597337343502672	-0.02270608379475699	-0.01108417040385611	-0.01823214001537276
-0.01842515533653749	-0.03181160481832184	-0.002767151429516813	0.003190581871393863
-0.01486448857120298	-0.043451926345797	0.01354253188995123	0.0129134225189887
-0.01120526539086692	-0.03569455645506329	0.0156595827654108	-0.0003319695871411202
0.007423665202077045	0.003376873059074087	0.005984777659969601	-0.03790992923074905
0.007893600320305292	0.02271471840791628	-0.01334543156019786	-0.05726718290855736
0.002216223191572212	0.0456774708478847	-0.02641033901743872	-0.06238250540993317
-0.00787370616579723	0.07701274281771839	-0.05622364943743446	-0.04430239495979939
-0.007969111953556797	0.04527230034356444	-0.06799660451640915	-0.01494657720752875
-0.0001506824240387335	0.03555885868778347	-0.01032977198055645	0.01464526928903571
3.675512605312775e-06	0.02757236834277071	0.03877393072103653	0.03334311100524857
0.01180914029996791	0.04681369288455101	0.02762149907351678	0.03978910690015387
0.01097179443176854	0.04321128453368951	0.03197323052597358	0.05406532246541378
0.00699641200028107	0.02172964170004976	0.0509404879184084	0.06798149451586233
0.0001859855400401994	-0.007165583908653131	0.01420960702786253	0.07005700389881848
-0.005114880715743339	-0.02868946096943922	0.00278889748537657	0.08920515773238845
-0.0234459130943597	-0.04872749281896625	-0.01781628757819093	0.08667427001839191
-0.01891628675738151	-0.05361519436128699	-0.008824279116742322	0.03466596242839647
-0.02695545045896199	-0.03150966171695503	-0.02150411914849811	0.001958067130525183
-0.03230994552326176	0.006716932517656576	-0.05127681157747724	0.01177586134586352
-0.01067201303030716	0.02501017730407749	-0.02121652520626582	0.009973407840187361
0.01407271121458404	0.02918519293312741	0.004160382571968174	-0.02609287974486019
0.02415563331489195	0.03424842451721894	-0.03562746332673719	-0.04018279552007737
0.02597798530744431	0.01712303051813652	-0.0531686047235869	-0.03918233422567234
0.0242185664250944	-0.008891480938377487	0.04337684451405874	-0.07283562556968495
0.02029309543284994	-0.02247291513647192	0.1420481568848506	-0.07394542147562941
0.01421344993904832	-0.01774526506249735	0.05022126901825915	-0.003804425935465483
-0.009668580528133538	-0.01840799217067647	0.0002694049378002476	0.08024734519206447
-0.03061822527840151	-0.03594590680944067	-0.0009023454733302102	0.04511941513953205
-0.02661770277058639	-0.04233683623574901	-0.0002514358812096492	0.02142296836060343
-0.0242935020134777	-0.03004186088309006	0.01605772591494284	0.02978646124089441
-0.02913291028081605	-0.01181404398289538	0.05274767552047842	0.04902223351285868
-0.01962434366039373	0.007265487513167441	0.02665064585973689	0.03488855032224932
-0.03778954853571852	0.02585954738098851	-0.02534711301450341	0.02345530748598667
-0.02008343956208465	0.04716836627223985	-0.04823979968944266	0.03494254309021451
0.01357948371856239	0.04890166753377197	-0.05959758723375407	0.05484911692235668
0.01587201788196434	0.0235916236063689	-0.03815363038585085	0.03283203743719983
0.007598686834324047	0.005875310654682411	0.01687086755107862	0.005185789742169167
-0.009911763458437299	0.0034545171884594	0.06722610048831837	0.005681773958244964
-0.01231849830753416	-0.01510872461103551	0.07772212847420246	-0.00293009265403492
0.01127800424043768	-0.02223288687503349	0.06912660799926212	-0.05589976852966937
0.01564401488837673	-0.03325896061683816	0.04062212147095674	-0.08109931624264678
0.01756850412929246	-0.04195596723234989	-0.005388709188380192	-0.05355591825922098
0.03313573327044907	-0.04311975960288613	-0.02106299522485999	-0.02683331882383616
0.03022624123841148	-0.03392687637010061	-0.03417850056421636	-0.03614993751376628
0.03096173399043016	-0.01270065870439892	-0.04060631368746403	-0.05370989862309795
0.01918585482631548	-0.003734893064086162	-0.05418162104394339	-0.0613066478215519
0.01277027252705915	0.01189917129005712	-0.07471091657327206	-0.06086317093290259
0.002887003603862875	0.003231765357379893	-0.05491993909064981	-0.0478205583576636
-0.004869214557098488	-0.005134149593084705	-0.04154638563218619	-0.01773301640385294
-0.01127930835052994	-0.002366814044119145	-0.02715624853259588	0.03019700639274919
-0.006411976589593028	0.03227820664825989	0.008290791974870742	-0.008901191818873217
-0.02594839757755853	0.01459215078048438	0.01840501605298227	-0.02901222628323777
-0.0224946834327478	0.01447486791775397	0.02019896774350226	-0.01442634066886035
-0.004908261956377777	0.02789264526498526	0.02061312281219778	-0.002775941862209663
0.008482262409097004	0.02262757869848762	0.00794360018165975	0.02812629875979149
0.007996590438116662	0.007634677231679963	-0.01487067189564105	0.09671724059388645
0.001532086254098944	-0.005336104624763489	-0.005733193762790013	0.03376949690212542
-0.0145044057248822	-0.02187538438754709	-0.01767725863805712	0.03251723474827044
-0.01252154144440545	-0.03470746034934163	-0.007990014093422246	0.1048217657385968
0.006218619943914845	-0.02895170484166546	-0.001445932657455611	0.08109678280160071
-0.008444153905770555	-0.02020064088229311	-0.01622386684041904	0.03148278188543462
-0.0029409231180391	-0.00180476516533883	-0.03031840963787743	0.004509043988335531
0.009457515810234724	0.03395758748370219	0.0004193808658569767	0.02442874196202731
0.006833367066990742	0.04682592754782766	0.02618133201557319	0.01089695350707238
-0.003924938615882893	0.03973767762696432	0.021071229743687	0.003196987347586638
0.001799569937946558	0.001698382484184759	0.01979841973944604	-0.01423275804688573
-0.0006751724765459768	-0.009770595026324984	0.006856993753863439	-0.0277679784665801
-0.01049323393237259	-0.0006922562239141069	0.04200464882616818	-0.09377719730233695
0.00401137148440742	0.03625166969984341	0.03286508924983019	-0.1062739028537546
0.01725244855356383	0.05701759521865853	0.02785232043608837	-0.06357610509397815
0.002000429936468495	0.02432381599941888	0.007586054261160794	-0.009055215506304547
-0.007811982584703253	0.009858725794471808	-0.00602562610373872	0.008652693714611179
-0.004928059608298187	-0.005065679141106792	0.0005010603454231991	0.01876465766657435
-0.0003539668788095227	-0.00601585313276521	-0.01656357552935737	0.01446921500929691
-0.001752585116355385	-0.01098845332243115	-0.02234143815955674	0.02743412815141041
0.002282205189035959	-0.007047570949116092	-0.01745555662086393	0.02115517280477916
0.006263570807318369	-0.02245212789327325	-0.01069479470873968	-0.03203227477689832
-0.003095325850711289	-0.03521536181237316	-0.0165262798492563	-0.0419217494560552
-0.006024941830909454	-0.0369593951254936	-0.01531990812193267	-0.02380119739214605
-0.0069947735446321	-0.03151162089202641	-0.001407932883958689	-0.01360217629495072
-0.003329660472825243	-0.02527637879121672	0.005581335312575178	-0.003755277053088737
0.008074301528703042	-0.01828267154114337	-0.005076031068552866	-0.01188998575417848
0.01363970948044779	-0.01935544752063248	-0.0004393063263113266	-0.004573472183621719
0.01032995597450174	-0.03382464852131321	0.03130712133079076	0.02922856804396595
-0.001912430401812894	-0.04653683562729383	0.03913781021187539	0.001876269136588532
-0.004073219161104959	-0.02755677270998337	0.0247891417286868	0.009579128388721072
-0.003972400757369053	-0.003796308414070436	0.02382286689818235	-0.004362615455338075
0.007839916272188673	0.009883389961065546	0.02457382360670574	-0.03809967539143517
0.02416427467198201	0.02308534068595171	-0.0004739670007509182	-0.0655825508994628
0.0199372578725096	0.03445803926384192	0.0003548994266102418	-0.03890455917526085
0.005240447319185488	0.005729095870663068	0.01518609068454536	0.04436462052338108
0.009195077652092463	0.0009037359093859025	0.02389096849491564	0.02190835894218994
0.0417918866054676	0.01844791621903374	0.02612436043716054	0.01493674120638072
0.02461729050420636	0.03305223399709974	-0.04093319863992587	0.04059054296169793
-0.003017398161392035	0.02834180102167378	-0.06710182048738017	0.02345616286380567
-0.002907065838539459	0.01625237454343154	-0.07401898364613821	-0.00298319101917233
0.006763788807915639	0.02265945253482131	-0.06510982964413814	0.01770705394740339
-0.01819234012521888	0.003541071777565572	-0.04388319884245693	0.03491868542639767
-0.01843438096972807	-0.0133037800074763	0.03846333090998885	0.009187819756710512
-0.01792318593126875	-0.01276985851214656	0.02249063784108035	-0.01516295431808117
-0.02228353410942126	-0.01654478063290312	0.02381817683608016	-0.009279436002885442
-0.04361077228579856	-0.01656920245786579	0.04722956966784089	-0.001827535172979243
-0.04485422343073238	0.01038211399206114	0.02632142771012522	-0.006824818929765177
-0.04411624949882205	0.02827019381660832	-0.00271361241417588	-0.001471299886285019
-0.05011318783780257	0.01487888169466713	-0.01018510206512721	0.006404326590864293
-0.03229926652705594	0.01990567315518598	-0.005496346324435976	0.01799176004145994
4.695583951724793e-05	0.02049245175615132	0.05154930875875673	0.002851464253123452
0.01459367965278521	0.03575380353584383	0.1048341678476821	-0.001651404058491916
0.008083748154045724	0.02823635390395795	0.06671979513612365	0.02628105376473512
0.01054828363237823	0.006392839082259643	0.005477303715759033	0.02008569294380723
0.00549658628627143	-0.01876588231033158	-0.08518536177796066	0.008001542258482588
0.008464913174454141	-0.05270510651620936	-0.04680266441176561	-0.0163781059183351
0.01194467763574939	-0.07986442116911312	-0.006550480429984106	-0.03014179090623866
0.008930283042926243	-0.06018004814134365	0.02257354984129271	0.002178144935656807
0.008686315694643617	-0.03334037916859504	0.02167043063525954	0.05790985506401671
0.01798693639336766	-0.02293966752723739	0.0238335977747876	0.1169382311046439
0.019912772458769	0.02520997724372073	-0.005554512968531973	0.04264199873595902
0.03763162320353843	0.08301370131881704	-0.04442274504811787	-0.004244434326491436
0.03948704370378781	0.09050091634893652	-0.06939392002549612	0.02140193947398174
-0.002865653493678416	-0.001350726130387498	-0.02912409316657781	-0.06132442090773724
0.002879327793240869	0.0375821878395929	-0.001807524815872056	-0.1214788126192512
0.0009309237304499999	0.05121997972544706	-0.002709700570554462	0.0252639355580425
-0.02020597920607247	0.03449152270270285	0.02483024387966957	0.07408035554670042
-0.01961849416256621	0.01870060952907873	0.02489851997524711	0.03213732728302741
-0.03602327754362319	0.007647959206608732	0.02885955824060188	-0.03919121176009849
-0.03551559398084337	0.004278344593059594	0.01246285522014368	-0.05236723744502037
-0.01703753540038762	0.0003439009982832357	-0.01724155872075572	-0.063842446669184
0.008766568450757926	-0.01779688559518546	-0.02453853922937858	-0.06229466756382009
0.01457763607514589	-0.02934359766061979	-0.03334133623269333	-0.05392962898482161
0.02661022787900648	-0.03742908823399034	-0.06073285657607642	-0.05956833490175482
0.01872677708635553	-0.04928785675554048	-0.04638276766822626	-0.04152246851395953
0.02293699578074832	-0.03690781294818929	-0.03474025056861935	-0.02048130690029959
0.01565234808384578	-0.02761015515124706	-0.004767217230394002	0.004611037722079467
0.01473453047082738	-0.01974920395258947	0.01205721149310773	0.02921832018523325
